ppg_us,ppg_agc_stable,ppg_led_drive_levels,ppg1,ppg2,ppg_in_waiting,elapsed_time_ms
1564, 0, 48, 605066, 499503,0,1.339299
1565, 0, 48, 612176, 505742,0,5.260698
1566, 0, 48, 604707, 500009,0,9.266996
1567, 0, 48, 611700, 505190,0,13.218095
1568, 0, 48, 604740, 500627,0,17.241893
1569, 0, 48, 611448, 505086,0,21.131092
1570, 0, 48, 604881, 501373,0,25.13029
1571, 0, 48, 610936, 503990,0,29.193789
1572, 0, 48, 605233, 502211,0,33.240087
1573, 0, 48, 610977, 503039,0,37.253986
1574, 0, 48, 606085, 502892,0,41.112084
1575, 0, 48, 610388, 501921,0,45.093883
1576, 0, 48, 606994, 503640,0,49.166381
1577, 0, 48, 609759, 501154,0,53.13398
1578, 0, 48, 607561, 504707,0,57.199078
1579, 0, 48, 608345, 500411,0,61.259776
1580, 0, 48, 608374, 505257,0,65.335375
1581, 0, 48, 607372, 499939,0,69.393773
1582, 0, 48, 609297, 506319,0,73.236072
1583, 0, 48, 606402, 499514,0,77.23057
1584, 0, 48, 609940, 506328,0,81.398269
1585, 0, 48, 605908, 499365,0,85.375467
1586, 0, 48, 611033, 506128,0,89.289666
1587, 0, 48, 605236, 499340,0,93.352264
1588, 0, 48, 611807, 505734,0,97.336763
1589, 0, 48, 605018, 499500,0,101.208261
1590, 0, 48, 612008, 505740,0,105.24426
1591, 0, 48, 604705, 499930,0,109.223558
1592, 0, 48, 611563, 505170,0,113.377857
1593, 0, 48, 604673, 500750,0,117.298555
1594, 0, 48, 611475, 505033,0,121.318554
1595, 0, 48, 604856, 501369,0,125.233852
1596, 0, 48, 610921, 503969,0,129.302251
1597, 0, 48, 605384, 502116,0,133.249549
1598, 0, 48, 610921, 502869,0,137.483248
1599, 0, 48, 606097, 502988,0,141.285346
1600, 0, 48, 610465, 501795,0,145.266945
1601, 0, 48, 606869, 503574,0,149.259643
1602, 0, 48, 609592, 501130,0,153.377542
1603, 0, 48, 607774, 504734,0,157.18754
1604, 0, 48, 608217, 500205,0,161.155139
1605, 0, 48, 608315, 505367,0,165.316837
1606, 0, 48, 607301, 499984,0,169.192736
1607, 0, 48, 609331, 506264,0,173.191534
1608, 0, 48, 606195, 499464,0,177.172733
1609, 0, 48, 609998, 506312,0,181.182931
1610, 0, 48, 605743, 499284,0,185.20473
1611, 0, 48, 610981, 506155,0,189.230128
1612, 0, 48, 605208, 499242,0,193.199427
1613, 0, 48, 611788, 505547,0,197.160025
1614, 0, 48, 604798, 499516,0,201.220024
1615, 0, 48, 612039, 505677,0,205.325022
1616, 0, 48, 604643, 499929,0,209.353321
1617, 0, 48, 611418, 505069,0,213.367619
1618, 0, 48, 604684, 500605,0,217.363518
1619, 0, 48, 611466, 504861,0,221.433916
1620, 0, 48, 604812, 501600,0,225.344415
1621, 0, 48, 610932, 503876,0,229.450513
1622, 0, 48, 605501, 502116,0,233.326912
1623, 0, 48, 610822, 502845,0,237.27361
1624, 0, 48, 606165, 503032,0,241.254709
1625, 0, 48, 610345, 501559,0,245.254907
1626, 0, 48, 606790, 503611,0,249.287206
1627, 0, 48, 609482, 500951,0,253.328804
1628, 0, 48, 607768, 504601,0,257.421903
1629, 0, 48, 607977, 500239,0,261.444001
1630, 0, 48, 608262, 505385,0,265.3458
1631, 0, 48, 607246, 499629,0,269.309498
1632, 0, 48, 609294, 506336,0,273.256297
1633, 0, 48, 606181, 499461,0,277.482495
1634, 0, 48, 610021, 506139,0,281.616294
1635, 0, 48, 605602, 499266,0,285.531892
1636, 0, 48, 611072, 506118,0,289.386191
1637, 0, 48, 605206, 499163,0,293.250889
1638, 0, 48, 611771, 505560,0,297.144188
1639, 0, 48, 604867, 499555,0,301.150386
1640, 0, 48, 611964, 505593,0,305.159985
1641, 0, 48, 604555, 500083,0,309.222383
1642, 0, 48, 611452, 505173,0,313.245882
1643, 0, 48, 604728, 500717,0,317.24228
1644, 0, 48, 611453, 504932,0,321.159879
1645, 0, 48, 604936, 501640,0,325.157477
1646, 0, 48, 610940, 503734,0,329.221276
1647, 0, 48, 605465, 502278,0,333.455874
1648, 0, 48, 610801, 502818,0,337.271173
1649, 0, 48, 606237, 502998,0,341.256071
1650, 0, 48, 610248, 501578,0,345.19817
1651, 0, 48, 606937, 503813,0,349.340268
1652, 0, 48, 609434, 500977,0,353.145567
1653, 0, 48, 607807, 504844,0,357.237265
1654, 0, 48, 608015, 500254,0,361.237464
1655, 0, 48, 608554, 505368,0,365.266862
1656, 0, 48, 607200, 499802,0,369.262061
1657, 0, 48, 609367, 506497,0,373.302759
1658, 0, 48, 606238, 499433,0,377.255358
1659, 0, 48, 610094, 506176,0,381.255356
1660, 0, 48, 605670, 499347,0,385.390254
1661, 0, 48, 611264, 506096,0,389.217853
1662, 0, 48, 605069, 499291,0,393.038552
1663, 0, 48, 611806, 505604,0,397.09745
1664, 0, 48, 604885, 499551,0,401.129249
1665, 0, 48, 611904, 505594,0,405.113147
1666, 0, 48, 604556, 500222,0,409.121746
1667, 0, 48, 611479, 505115,0,413.140744
1668, 0, 48, 604654, 500806,0,417.097443
1669, 0, 48, 611325, 504965,0,421.122941
1670, 0, 48, 604987, 501575,0,425.08054
1671, 0, 48, 610861, 503649,0,429.110338
1672, 0, 48, 605498, 502259,0,433.249236
1673, 0, 48, 610841, 502722,0,437.278535
1674, 0, 48, 606200, 503083,0,441.285833
1675, 0, 48, 610171, 501567,0,445.265532
1676, 0, 48, 606999, 503753,0,449.33773
1677, 0, 48, 609296, 500946,0,453.341729
1678, 0, 48, 607730, 504894,0,457.175227
1679, 0, 48, 608026, 500125,0,461.197826
1680, 0, 48, 608518, 505581,0,465.303824
1681, 0, 48, 607031, 499738,0,469.357923
1682, 0, 48, 609536, 506430,0,473.241921
1683, 0, 48, 606075, 499336,0,477.21802
1684, 0, 48, 610021, 506126,0,481.240718
1685, 0, 48, 605617, 499267,0,485.276517
1686, 0, 48, 611271, 506087,0,489.246815
1687, 0, 48, 604922, 499276,0,493.249714
1688, 0, 48, 611908, 505572,0,497.071512
1689, 0, 48, 604893, 499625,0,501.025011
1690, 0, 48, 611904, 505671,0,505.057209
1691, 0, 48, 604558, 500148,0,509.063708
1692, 0, 48, 611445, 505082,0,513.142306
1693, 0, 48, 604591, 500910,0,517.118405
1694, 0, 48, 611494, 504848,0,521.047403
1695, 0, 48, 604950, 501675,0,525.097402
1696, 0, 48, 610790, 503608,0,529.0777
1697, 0, 48, 605555, 502444,0,533.150499
1698, 0, 48, 610856, 502618,0,537.047197
1699, 0, 48, 606210, 503195,0,541.018196
1700, 0, 48, 610193, 501486,0,545.049994
1701, 0, 48, 607138, 503836,0,549.391093
1702, 0, 48, 609242, 500892,0,553.251491
1703, 0, 48, 607880, 504896,0,557.24169
1704, 0, 48, 607945, 500073,0,561.259988
1705, 0, 48, 608563, 505628,0,565.216987
1706, 0, 48, 607097, 499863,0,569.312785
1707, 0, 48, 609602, 506429,0,573.233784
1708, 0, 48, 606108, 499363,0,577.330682
1709, 0, 48, 610254, 506239,0,581.424181
1710, 0, 48, 605683, 499290,0,585.345579
1711, 0, 48, 611335, 506110,0,589.450278
1712, 0, 48, 605119, 499339,0,593.427276
1713, 0, 48, 611950, 505499,0,597.268475
1714, 0, 48, 604857, 499728,0,601.239973
1715, 0, 48, 611959, 505643,0,605.378272
1716, 0, 48, 604681, 500117,0,609.26887
1717, 0, 48, 611381, 505098,0,613.269169
1718, 0, 48, 604759, 500829,0,617.300467
1719, 0, 48, 611406, 504659,0,621.070166
1720, 0, 48, 604990, 501772,0,625.203664
1721, 0, 48, 610860, 503503,0,629.304263
1722, 0, 48, 605610, 502271,0,633.332161
1723, 0, 48, 610736, 502588,0,637.23446
1724, 0, 48, 606412, 503262,0,641.306858
1725, 0, 48, 610261, 501296,0,645.311557
1726, 0, 48, 607111, 504046,0,649.177755
1727, 0, 48, 609189, 500970,0,653.422254
1728, 0, 44, 630675, 504969,0,657.298452
1729, 0, 44, 664839, 550283,0,661.290651
1730, 0, 44, 667527, 563986,0,665.262349
1731, 0, 44, 666015, 558150,0,669.399648
1732, 0, 44, 668605, 565087,0,673.326046
1733, 0, 44, 664975, 557878,0,677.350045
1734, 0, 44, 669367, 564657,0,681.316943
1735, 0, 44, 664462, 557692,0,685.268842
1736, 0, 44, 670377, 564670,0,689.24574
1737, 0, 44, 664021, 557792,0,693.399339
1738, 0, 44, 670953, 564114,0,697.258537
1739, 0, 44, 663707, 558180,0,701.422336
1740, 0, 44, 671047, 564066,0,705.201634
1741, 0, 44, 663468, 558731,0,709.199933
1742, 0, 44, 670436, 563667,0,713.333431
1743, 0, 44, 663592, 559350,0,717.33013
1744, 0, 44, 670341, 563231,0,721.300428
1745, 0, 44, 663940, 560283,0,725.098527
1746, 0, 44, 669836, 561982,0,729.192825
1747, 0, 44, 664584, 561048,0,733.389324
1748, 0, 44, 669835, 561035,0,737.161222
1749, 0, 44, 665302, 561673,0,741.298921
1750, 0, 44, 668947, 559736,0,745.243119
1751, 0, 44, 666077, 562454,0,749.494417
1752, 0, 44, 668018, 559093,0,753.185216
1753, 0, 44, 666911, 563493,0,757.133915
1754, 0, 44, 666582, 558494,0,761.162813
1755, 0, 44, 667627, 564221,0,765.165512
1756, 0, 44, 665895, 558084,0,769.19731
1757, 0, 44, 668543, 565116,0,773.073609
1758, 0, 44, 664919, 557645,0,777.097107
1759, 0, 44, 669414, 564656,0,781.071306
1760, 0, 44, 664356, 557673,0,785.079704
1761, 0, 44, 670463, 564568,0,789.215103
1762, 0, 44, 663908, 557747,0,793.402001
1763, 0, 44, 670883, 564028,0,797.308999
1764, 0, 44, 663563, 557968,0,801.363398
1765, 0, 44, 670906, 563950,0,805.361496
1766, 0, 44, 663455, 558734,0,809.284795
1767, 0, 44, 670366, 563450,0,813.264893
1768, 0, 44, 663635, 559362,0,817.376892
1769, 0, 44, 670281, 563082,0,821.35319
1770, 0, 44, 663934, 560184,0,825.274689
1771, 0, 44, 669738, 561748,0,829.202287
1772, 0, 44, 664494, 560871,0,833.213486
1773, 0, 44, 669700, 560755,0,837.263484
1774, 0, 44, 665317, 561802,0,841.201283
1775, 0, 44, 668862, 559601,0,845.320681
1776, 0, 44, 666057, 562339,0,849.27308
1777, 0, 44, 667878, 559075,0,853.342278
1778, 0, 44, 666781, 563490,0,857.389777
1779, 0, 44, 666536, 558354,0,861.352475
1780, 0, 44, 667592, 564183,0,865.290174
1781, 0, 44, 665689, 558036,0,869.301672
1782, 0, 44, 668601, 564992,0,873.302571
1783, 0, 44, 664760, 557613,0,877.276569
1784, 0, 44, 669273, 564513,0,881.254868
1785, 0, 44, 664394, 557599,0,885.146966
1786, 0, 44, 670383, 564440,0,889.221065
1787, 0, 44, 663633, 557685,0,893.276763
1788, 0, 44, 670834, 563920,0,897.284462
1789, 0, 44, 663582, 558058,0,901.25416
1790, 0, 44, 670764, 563910,0,905.246159
1791, 0, 44, 663459, 558671,0,909.604657
1792, 0, 44, 670229, 563349,0,914.172655
1793, 0, 44, 663441, 559367,0,917.732454
1794, 0, 44, 670205, 563000,0,922.916352
1795, 0, 44, 663858, 560116,0,925.342751
1796, 0, 44, 669626, 561676,0,929.20175
1797, 0, 44, 664537, 560910,0,933.253348
1798, 0, 44, 669616, 560584,0,937.229947
1799, 0, 44, 665290, 561688,0,941.209145
1800, 0, 44, 668849, 559566,0,945.210644
1801, 0, 44, 666081, 562393,0,949.163542
1802, 0, 44, 667692, 559035,0,953.115841
1803, 0, 44, 666885, 563497,0,957.207739
1804, 0, 44, 666397, 558217,0,961.474638
1805, 0, 44, 667545, 564227,0,965.353036
1806, 0, 44, 665596, 557968,0,969.323235
1807, 0, 44, 668603, 564830,0,973.305533
1808, 0, 44, 664676, 557677,0,977.291232
1809, 0, 44, 669368, 564534,0,981.10143
1810, 0, 44, 664257, 557482,0,985.332029
1811, 0, 44, 670322, 564415,0,989.148727
1812, 0, 44, 663755, 557674,0,993.338826
1813, 0, 44, 670849, 563685,0,997.309524
1814, 0, 44, 663431, 558088,0,1001.415823
1815, 0, 44, 670654, 563885,0,1005.238621
1816, 0, 44, 663323, 558539,0,1009.34542
1817, 0, 44, 670084, 563364,0,1013.204118
1818, 0, 44, 663507, 559316,0,1017.167417
1819, 0, 44, 670145, 562780,0,1021.205515
1820, 0, 44, 663812, 560156,0,1025.167114
1821, 0, 44, 669596, 561534,0,1029.396312
1822, 0, 44, 664518, 560830,0,1033.360711
1823, 0, 44, 669369, 560598,0,1037.215709
1824, 0, 44, 665306, 561786,0,1041.157908
1825, 0, 44, 668778, 559454,0,1045.128306
1826, 0, 44, 666055, 562496,0,1049.199605
1827, 0, 44, 667700, 558894,0,1053.187003
1828, 0, 44, 666903, 563428,0,1057.320402
1829, 0, 44, 666333, 558319,0,1061.2341
1830, 0, 44, 667698, 564269,0,1065.462999
1831, 0, 44, 665710, 557937,0,1069.350097
1832, 0, 44, 668649, 564918,0,1073.287996
1833, 0, 44, 664694, 557628,0,1077.281494
1834, 0, 44, 669403, 564448,0,1081.220393
1835, 0, 44, 664064, 557556,0,1085.292691
1836, 0, 44, 670475, 564430,0,1089.27719
1837, 0, 44, 663736, 557644,0,1093.273688
1838, 0, 44, 670805, 563852,0,1097.173887
1839, 0, 44, 663462, 558098,0,1101.327585
1840, 0, 44, 670722, 563756,0,1105.294284
1841, 0, 44, 663360, 558717,0,1109.236582
1842, 0, 44, 670127, 563390,0,1113.287781
1843, 0, 44, 663646, 559467,0,1117.309379
1844, 0, 44, 670188, 562888,0,1121.257478
1845, 0, 44, 663995, 560366,0,1125.163976
1846, 0, 44, 669689, 561490,0,1129.127875
1847, 0, 44, 664554, 560955,0,1133.494973
1848, 0, 44, 669555, 560589,0,1137.254472
1849, 0, 44, 665468, 561837,0,1141.07457
1850, 0, 44, 668690, 559465,0,1145.032169
1851, 0, 44, 666099, 562531,0,1149.164967
1852, 0, 44, 667581, 558801,0,1153.359065
1853, 0, 44, 667030, 563554,0,1157.330564
1854, 0, 44, 666213, 558278,0,1161.165263
1855, 0, 44, 667739, 564287,0,1165.155061
1856, 0, 44, 665473, 557886,0,1169.315659
1857, 0, 44, 668657, 564968,0,1173.273258
1858, 0, 44, 664562, 557509,0,1177.219656
1859, 0, 44, 669431, 564381,0,1181.240555
1860, 0, 44, 664088, 557582,0,1185.292053
1861, 0, 44, 670453, 564318,0,1189.234552
1862, 0, 44, 663634, 557686,0,1193.27685
1863, 0, 44, 670692, 563750,0,1197.226049
1864, 0, 44, 663451, 557919,0,1201.154847
1865, 0, 44, 670645, 563616,0,1205.294646
1866, 0, 44, 663299, 558795,0,1209.279744
1867, 0, 44, 670119, 563231,0,1213.212843
1868, 0, 44, 663568, 559466,0,1217.136841
1869, 0, 44, 670019, 562660,0,1221.41404
1870, 0, 44, 663912, 560252,0,1225.259438
1871, 0, 44, 669597, 561325,0,1229.294837
1872, 0, 44, 664468, 560989,0,1233.276435
1873, 0, 44, 669444, 560442,0,1237.285534
1874, 0, 44, 665379, 561831,0,1241.133332
1875, 0, 44, 668451, 559354,0,1245.275531
1876, 0, 44, 666179, 562629,0,1249.348829
1877, 0, 44, 667488, 558755,0,1253.436928
1878, 0, 44, 666887, 563609,0,1257.240826
1879, 0, 44, 666122, 558266,0,1261.166825
1880, 0, 44, 667647, 564301,0,1265.364623
1881, 0, 44, 665324, 557882,0,1269.370222
1882, 0, 44, 668760, 564778,0,1273.32762
1883, 0, 44, 664506, 557551,0,1277.200819
1884, 0, 44, 669366, 564357,0,1281.206317
1885, 0, 44, 664010, 557489,0,1285.317616
1886, 0, 44, 670440, 564162,0,1289.179214
1887, 0, 44, 663417, 557670,0,1293.227813
1888, 0, 44, 670776, 563703,0,1297.173611
1889, 0, 44, 663366, 558009,0,1301.27301
1890, 0, 44, 670584, 563748,0,1305.184608
1891, 0, 44, 663353, 558704,0,1309.164607
1892, 0, 44, 670072, 563147,0,1313.313405
1893, 0, 44, 663439, 559382,0,1317.245504
1894, 0, 44, 670142, 562617,0,1321.199802
1895, 0, 44, 663951, 560274,0,1325.185101
1896, 0, 44, 669562, 561335,0,1329.183599
1897, 0, 44, 664634, 561014,0,1333.170998
1898, 0, 44, 669479, 560301,0,1337.267096
1899, 0, 44, 665402, 561987,0,1341.302795
1900, 0, 44, 668503, 559283,0,1345.208193
1901, 0, 44, 666234, 562560,0,1349.290292
1902, 0, 44, 667354, 558843,0,1353.34799
1903, 0, 44, 666961, 563663,0,1357.268089
1904, 0, 44, 666119, 558047,0,1361.237487
1905, 0, 44, 667680, 564370,0,1365.221786
1906, 0, 44, 665497, 557802,0,1369.248684
1907, 0, 44, 668824, 564751,0,1373.205283
1908, 0, 44, 664397, 557574,0,1377.188781
1909, 0, 44, 669511, 564382,0,1381.18738
1910, 0, 44, 664000, 557445,0,1385.255078
1911, 0, 44, 670520, 564317,0,1389.194477
1912, 0, 44, 663599, 557690,0,1393.153675
1913, 0, 44, 670774, 563648,0,1397.237574
1914, 0, 44, 663299, 558150,0,1401.232572
1915, 0, 44, 670660, 563663,0,1405.172671
1916, 0, 44, 663352, 558715,0,1409.226569
1917, 0, 44, 670018, 563237,0,1413.218468
1918, 0, 44, 663578, 559491,0,1417.189466
1919, 0, 44, 670135, 562555,0,1421.172865
1920, 0, 44, 663935, 560335,0,1425.330263
1921, 0, 44, 669508, 561229,0,1429.257462
1922, 0, 44, 664660, 560917,0,1433.22466
1923, 0, 44, 669318, 560368,0,1437.178959
1924, 0, 44, 665441, 561991,0,1441.232757
1925, 0, 44, 668377, 559200,0,1445.262356
1926, 0, 44, 666157, 562624,0,1449.338254
1927, 0, 44, 667274, 558674,0,1453.160653
1928, 0, 44, 667040, 563621,0,1457.172151
1929, 0, 44, 665988, 558077,0,1461.16435
1930, 0, 44, 667802, 564460,0,1465.260848
1931, 0, 44, 665401, 557854,0,1469.252747
1932, 0, 44, 668715, 564851,0,1473.182645
1933, 0, 44, 664354, 557545,0,1477.160144
1934, 0, 44, 669618, 564303,0,1481.346542
1935, 0, 44, 663995, 557476,0,1485.288341
1936, 0, 44, 670622, 564269,0,1489.330339
1937, 0, 44, 663583, 557685,0,1493.279338
1938, 0, 44, 670645, 563682,0,1497.271736
1939, 0, 44, 663404, 558219,0,1501.227635
1940, 0, 44, 670537, 563700,0,1505.426533
1941, 0, 44, 663292, 558859,0,1509.287031
1942, 0, 44, 670064, 563294,0,1513.26573
1943, 0, 44, 663578, 559513,0,1517.094829
1944, 0, 44, 669953, 562507,0,1521.467427
1945, 0, 44, 664040, 560467,0,1525.281725
1946, 0, 44, 669541, 561121,0,1529.360624
1947, 0, 44, 664729, 561156,0,1533.392822
1948, 0, 44, 669342, 560257,0,1537.203221
1949, 0, 44, 665592, 561948,0,1541.09142
1950, 0, 44, 668342, 559262,0,1545.191418
1951, 0, 44, 666299, 562703,0,1549.228716
1952, 0, 44, 667254, 558559,0,1553.231015
1953, 0, 44, 667063, 563773,0,1557.246113
1954, 0, 44, 665979, 558094,0,1561.224012
1955, 0, 44, 667831, 564386,0,1565.22721
1956, 0, 44, 665281, 557804,0,1569.264309
1957, 0, 44, 668856, 564856,0,1573.211907
1958, 0, 44, 664468, 557367,0,1577.186306
1959, 0, 44, 669675, 564367,0,1581.392304
1960, 0, 44, 663924, 557554,0,1585.226703
1961, 0, 44, 670654, 564185,0,1589.152601
1962, 0, 44, 663487, 557673,0,1593.1008
1963, 0, 44, 670635, 563756,0,1597.296898
1964, 0, 44, 663392, 558151,0,1601.222897
1965, 0, 44, 670507, 563656,0,1605.238995
1966, 0, 44, 663224, 558835,0,1609.254094
1967, 0, 44, 669987, 563043,0,1613.285992
1968, 0, 44, 663583, 559591,0,1617.151491
1969, 0, 44, 669910, 562363,0,1621.192589
1970, 0, 44, 663981, 560385,0,1625.188588
1971, 0, 44, 669442, 560948,0,1629.200186
1972, 0, 44, 664668, 561146,0,1633.353985
1973, 0, 44, 669422, 560212,0,1637.201183
1974, 0, 44, 665591, 562049,0,1641.240782
1975, 0, 44, 668192, 559202,0,1645.49758
1976, 0, 44, 666353, 562735,0,1649.253879
1977, 0, 44, 667148, 558498,0,1653.169977
1978, 0, 40, 691516, 563758,0,1657.147676
1979, 0, 40, 727603, 611945,0,1661.065574
1980, 0, 40, 731560, 627029,0,1665.321673
1981, 0, 40, 728804, 620648,0,1669.188671
1982, 0, 40, 732695, 627796,0,1673.21767
1983, 0, 40, 728078, 620394,0,1677.148068
1984, 0, 40, 733442, 627242,0,1681.349667
1985, 0, 40, 727638, 620403,0,1685.275765
1986, 0, 40, 734449, 627236,0,1689.251164
1987, 0, 40, 727121, 620630,0,1693.238362
1988, 0, 40, 734431, 626610,0,1697.313561
1989, 0, 40, 726991, 621021,0,1701.287259
1990, 0, 40, 734220, 626602,0,1705.321758
1991, 0, 40, 726989, 621821,0,1709.243656
1992, 0, 40, 733721, 625954,0,1713.235055
1993, 0, 40, 727140, 622600,0,1717.243153
1994, 0, 40, 733740, 625286,0,1721.327652
1995, 0, 40, 727725, 623274,0,1725.19425
1996, 0, 40, 733162, 623795,0,1729.134949
1997, 0, 40, 728382, 624005,0,1733.218247
1998, 0, 40, 732922, 622855,0,1737.274446
1999, 0, 40, 729211, 624967,0,1741.257844
2000, 0, 40, 731818, 621886,0,1745.286943
2001, 0, 40, 730131, 625590,0,1749.174541
2002, 0, 40, 730721, 621420,0,1753.24134
2003, 0, 40, 730924, 626818,0,1757.173238
2004, 0, 40, 729559, 620707,0,1761.282437
2005, 0, 40, 731583, 627491,0,1765.143035
2006, 0, 40, 728738, 620559,0,1769.161234
2007, 0, 40, 732691, 627565,0,1773.286432
2008, 0, 40, 727972, 620274,0,1777.287531
2009, 0, 40, 733515, 627241,0,1781.179929
2010, 0, 40, 727561, 620315,0,1785.288828
2011, 0, 40, 734398, 627122,0,1789.176426
2012, 0, 40, 727135, 620629,0,1793.177425
2013, 0, 40, 734419, 626499,0,1797.170523
2014, 0, 40, 726927, 621184,0,1801.218222
2015, 0, 40, 734181, 626512,0,1805.24482
2016, 0, 40, 726943, 621781,0,1809.124519
2017, 0, 40, 733529, 625965,0,1813.231417
2018, 0, 40, 727290, 622643,0,1817.528215
2019, 0, 40, 733726, 625162,0,1821.367514
2020, 0, 40, 727706, 623480,0,1825.163113
2021, 0, 40, 733175, 623853,0,1829.182511
2022, 0, 40, 728547, 624101,0,1833.25141
2023, 0, 40, 732923, 622950,0,1837.120208
2024, 0, 40, 729366, 625028,0,1841.091607
2025, 0, 40, 731697, 621767,0,1845.058605
2026, 0, 40, 730027, 625814,0,1849.155604
2027, 0, 40, 730657, 621453,0,1853.213602
2028, 0, 40, 730972, 626794,0,1857.150901
2029, 0, 40, 729392, 620845,0,1861.171399
2030, 0, 40, 731688, 627485,0,1865.328097
2031, 0, 40, 728798, 620561,0,1869.229196
2032, 0, 40, 732697, 627676,0,1873.157095
2033, 0, 40, 727952, 620324,0,1877.149393
2034, 0, 40, 733519, 627103,0,1881.162492
2035, 0, 40, 727437, 620377,0,1885.17559
2036, 0, 40, 734481, 627146,0,1889.212989
2037, 0, 40, 727126, 620560,0,1893.180187
2038, 0, 40, 734291, 626596,0,1897.128286
2039, 0, 40, 726932, 621172,0,1901.211284
2040, 0, 40, 734211, 626393,0,1905.173183
2041, 0, 40, 726902, 621817,0,1909.144181
2042, 0, 40, 733619, 626017,0,1913.278879
2043, 0, 40, 727360, 622654,0,1917.145978
2044, 0, 40, 733635, 625068,0,1921.186276
2045, 0, 40, 727745, 623465,0,1925.144675
2046, 0, 40, 733160, 623610,0,1929.313673
2047, 0, 40, 728524, 624159,0,1933.298072
2048, 0, 40, 732849, 622860,0,1937.17387
2049, 0, 40, 729377, 625004,0,1941.134269
2050, 0, 40, 731555, 621765,0,1945.286667
2051, 0, 40, 729985, 625827,0,1949.291666
2052, 0, 40, 730608, 621244,0,1953.225564
2053, 0, 40, 731077, 626886,0,1957.165463
2054, 0, 40, 729313, 620780,0,1961.137061
2055, 0, 40, 731754, 627538,0,1965.16106
2056, 0, 40, 728689, 620524,0,1969.136958
2057, 0, 40, 732741, 627721,0,1973.158657
2058, 0, 40, 727893, 620213,0,1977.216355
2059, 0, 40, 733622, 627126,0,1981.275554
2060, 0, 40, 727399, 620404,0,1985.297452
2061, 0, 40, 734493, 627030,0,1989.187951
2062, 0, 40, 727043, 620630,0,1993.270249
2063, 0, 40, 734178, 626457,0,1997.108348
2064, 0, 40, 726939, 621119,0,2001.069746
2065, 0, 40, 734173, 626439,0,2005.076245
2066, 0, 40, 726868, 621911,0,2009.084843
2067, 0, 40, 733612, 625917,0,2013.099242
2068, 0, 40, 727325, 622692,0,2017.08384
2069, 0, 40, 733543, 624904,0,2021.071739
2070, 0, 40, 727865, 623494,0,2025.325237
2071, 0, 40, 733146, 623563,0,2029.229536
2072, 0, 40, 728528, 624212,0,2033.248634
2073, 0, 40, 732853, 622795,0,2037.167433
2074, 0, 40, 729512, 625150,0,2041.361131
2075, 0, 40, 731486, 621819,0,2045.17133
2076, 0, 40, 730140, 625937,0,2049.141528
2077, 0, 40, 730483, 621264,0,2053.150827
2078, 0, 40, 730920, 627000,0,2057.282925
2079, 0, 40, 729285, 620719,0,2061.210524
2080, 0, 40, 731786, 627589,0,2065.128722
2081, 0, 40, 728532, 620517,0,2069.172021
2082, 0, 40, 732932, 627614,0,2073.196919
2083, 0, 40, 727842, 620247,0,2077.186218
2084, 0, 40, 733621, 627134,0,2081.401016
2085, 0, 40, 727451, 620441,0,2085.189715
2086, 0, 40, 734525, 627037,0,2089.235213
2087, 0, 40, 726955, 620704,0,2093.159512
2088, 0, 40, 734217, 626508,0,2097.12311
2089, 0, 40, 726949, 621145,0,2100.978409
2090, 0, 40, 734049, 626367,0,2105.218007
2091, 0, 40, 726944, 621922,0,2109.258606
2092, 0, 40, 733542, 625788,0,2113.236504
2093, 0, 40, 727254, 622721,0,2117.147803
2094, 0, 40, 733561, 624915,0,2121.782901
2095, 0, 40, 727969, 623421,0,2125.1461
2096, 0, 40, 732988, 623532,0,2129.166298
2097, 0, 40, 728614, 624234,0,2133.273297
2098, 0, 40, 732771, 622643,0,2137.259195
2099, 0, 40, 729485, 625225,0,2141.170894
2100, 0, 40, 731412, 621781,0,2145.230192
2101, 0, 40, 730165, 625801,0,2149.184691
2102, 0, 40, 730281, 621259,0,2153.034289
2103, 0, 40, 731127, 627032,0,2157.094888
2104, 0, 40, 729095, 620611,0,2161.088886
2105, 0, 40, 731762, 627573,0,2165.102985
2106, 0, 40, 728526, 620531,0,2169.090583
2107, 0, 40, 732974, 627514,0,2173.065682
2108, 0, 40, 727723, 620322,0,2177.05328
2109, 0, 40, 733728, 627144,0,2181.072379
2110, 0, 40, 727494, 620310,0,2185.041177
2111, 0, 40, 734552, 627001,0,2189.190776
2112, 0, 40, 727080, 620666,0,2193.218574
2113, 0, 40, 734225, 626463,0,2197.175273
2114, 0, 40, 726940, 621316,0,2201.443671
2115, 0, 40, 734203, 626498,0,2205.21067
2116, 0, 40, 727080, 622064,0,2209.230068
2117, 0, 40, 733567, 625875,0,2213.291767
2118, 0, 40, 727370, 622925,0,2217.087965
2119, 0, 40, 733595, 624749,0,2221.220464
2120, 0, 40, 727934, 623667,0,2225.080562
2121, 0, 40, 733094, 623480,0,2229.088661
2122, 0, 40, 728809, 624316,0,2233.205059
2123, 0, 40, 732644, 622733,0,2237.034458
2124, 0, 40, 729597, 625334,0,2241.190256
2125, 0, 40, 731278, 621596,0,2245.154755
2126, 0, 40, 730173, 626055,0,2249.153053
2127, 0, 40, 730305, 621250,0,2253.112252
2128, 0, 40, 731237, 627066,0,2257.12065
2129, 0, 40, 729036, 620709,0,2261.124749
2130, 0, 40, 731935, 627765,0,2265.105247
2131, 0, 40, 728562, 620456,0,2269.140946
2132, 0, 40, 733037, 627740,0,2273.129744
2133, 0, 40, 727766, 620366,0,2277.124243
2134, 0, 40, 733837, 627117,0,2281.077841
2135, 0, 40, 727359, 620440,0,2285.192939
2136, 0, 40, 734582, 627146,0,2289.216338
2137, 0, 40, 727051, 620705,0,2293.101436
2138, 0, 40, 734211, 626538,0,2297.144135
2139, 0, 40, 726887, 621390,0,2301.137233
2140, 0, 40, 734167, 626319,0,2305.107432
2141, 0, 40, 727014, 622143,0,2309.18203
2142, 0, 40, 733492, 625700,0,2313.054129
2143, 0, 40, 727452, 622784,0,2317.100327
2144, 0, 40, 733541, 624719,0,2321.131326
2145, 0, 40, 727917, 623701,0,2325.145224
2146, 0, 40, 733017, 623176,0,2329.157323
2147, 0, 40, 728817, 624413,0,2333.153821
2148, 0, 40, 732573, 622648,0,2337.27362
2149, 0, 40, 729703, 625319,0,2341.156918
2150, 0, 40, 731166, 621556,0,2345.215217
2151, 0, 40, 730316, 626133,0,2349.316415
2152, 0, 40, 730270, 621150,0,2353.197714
2153, 0, 40, 731278, 627198,0,2357.237812
2154, 0, 40, 728999, 620670,0,2361.086011
2155, 0, 40, 732098, 627582,0,2365.041609
2156, 0, 40, 728526, 620500,0,2369.184808
2157, 0, 40, 733083, 627643,0,2373.236007
2158, 0, 40, 727743, 620238,0,2377.160007
2159, 0, 40, 733868, 627022,0,2381.105407
2160, 0, 40, 727339, 620456,0,2384.994307
2161, 0, 40, 734665, 627041,0,2389.145306
2162, 0, 40, 726972, 620884,0,2393.195006
2163, 0, 40, 734039, 626483,0,2397.157906
2164, 0, 40, 726891, 621424,0,2401.149205
2165, 0, 40, 734043, 626340,0,2405.262505
2166, 0, 40, 726925, 622182,0,2409.087105
2167, 0, 40, 733477, 625593,0,2413.245305
2168, 0, 40, 727438, 622823,0,2417.153104
2169, 0, 40, 733385, 624591,0,2421.246104
2170, 0, 40, 728049, 623695,0,2425.188904
2171, 0, 40, 733006, 623186,0,2429.129704
2172, 0, 40, 728726, 624406,0,2433.198203
2173, 0, 40, 732525, 622491,0,2437.224103
2174, 0, 40, 729748, 625437,0,2441.234503
2175, 0, 40, 731017, 621679,0,2445.124402
2176, 0, 40, 730403, 626180,0,2449.396802
2177, 0, 40, 730104, 621068,0,2453.147502
2178, 0, 40, 731257, 627215,0,2457.064902
2179, 0, 40, 728879, 620522,0,2461.075901
2180, 0, 40, 732005, 627549,0,2465.115701
2181, 0, 40, 728213, 620421,0,2469.044801
2182, 0, 40, 733107, 627494,0,2473.019001
2183, 0, 40, 727665, 620072,0,2477.0384
2184, 0, 40, 733750, 626970,0,2481.0466
2185, 0, 40, 727273, 620438,0,2485.0773
2186, 0, 40, 734548, 626873,0,2489.174599
2187, 0, 40, 726867, 620769,0,2493.203899
2188, 0, 40, 734056, 626295,0,2497.199999
2189, 0, 40, 726929, 621282,0,2501.191199
2190, 0, 40, 734001, 626330,0,2505.187398
2191, 0, 40, 726995, 622278,0,2509.194798
2192, 0, 40, 733440, 625455,0,2513.155198
2193, 0, 40, 727418, 623034,0,2517.121198
2194, 0, 40, 733465, 624555,0,2521.183597
2195, 0, 40, 728095, 623747,0,2525.175597
2196, 0, 40, 732869, 623225,0,2529.192497
2197, 0, 40, 728820, 624475,0,2533.086096
2198, 0, 40, 732395, 622342,0,2537.222496
2199, 0, 40, 729695, 625475,0,2541.143696
2200, 0, 40, 731085, 621533,0,2545.153896
2201, 0, 40, 730497, 626159,0,2549.217895
2202, 0, 40, 729969, 621079,0,2553.150395
2203, 0, 40, 731434, 627297,0,2557.133295
2204, 0, 40, 728839, 620422,0,2561.151795
2205, 0, 40, 732110, 627596,0,2565.171294
2206, 0, 40, 728302, 620472,0,2569.184794
2207, 0, 40, 733236, 627440,0,2573.183394
2208, 0, 40, 727564, 620274,0,2577.176993
2209, 0, 40, 734044, 627021,0,2581.182293
2210, 0, 40, 727359, 620397,0,2585.433493
2211, 0, 40, 734540, 626988,0,2589.503393
2212, 0, 40, 726932, 620822,0,2593.150492
2213, 0, 40, 734108, 626351,0,2597.125292
2214, 0, 40, 726906, 621546,0,2601.174592
2215, 0, 40, 734069, 626334,0,2605.161992
2216, 0, 40, 727111, 622261,0,2609.172691
2217, 0, 40, 733353, 625520,0,2613.198691
2218, 0, 40, 727554, 623130,0,2617.137091
2219, 0, 40, 733441, 624401,0,2621.19889
2220, 0, 40, 728122, 623858,0,2625.11099
2221, 0, 40, 732915, 623091,0,2629.10799
2222, 0, 40, 728970, 624510,0,2633.18849
2223, 0, 40, 732167, 622351,0,2637.184289
2224, 0, 40, 729763, 625628,0,2641.111489
2225, 0, 40, 730859, 621444,0,2645.122389
2226, 0, 40, 730415, 626364,0,2649.151789
2227, 0, 40, 729882, 621019,0,2653.231088
2228, 0, 36, 758357, 627316,0,2657.137588
2229, 0, 36, 796260, 679379,0,2661.231388
2230, 0, 36, 801887, 695875,0,2665.230187
2231, 0, 36, 798023, 688949,0,2669.299387
2232, 0, 36, 803139, 696230,0,2673.235387
2233, 0, 36, 797347, 688864,0,2677.162287
2234, 0, 36, 803936, 695572,0,2681.137986
2235, 0, 36, 796991, 689079,0,2685.179586
2236, 0, 36, 804390, 695677,0,2689.157686
2237, 0, 36, 796609, 689473,0,2693.189086
2238, 0, 36, 803907, 695069,0,2697.096285
2239, 0, 36, 796682, 690213,0,2701.166085
2240, 0, 36, 803888, 694918,0,2705.124985
2241, 0, 36, 796795, 690905,0,2709.127085
2242, 0, 36, 803227, 693929,0,2713.106184
2243, 0, 36, 797324, 691673,0,2717.197784
2244, 0, 36, 803199, 692924,0,2721.162284
2245, 0, 36, 797893, 692478,0,2725.095683
2246, 0, 36, 802673, 691454,0,2729.132283
2247, 0, 36, 798718, 693176,0,2733.130783
2248, 0, 36, 801892, 690888,0,2737.140883
2249, 0, 36, 799690, 694236,0,2741.241682
2250, 0, 36, 800511, 689954,0,2745.037882
2251, 0, 36, 800277, 695081,0,2749.132682
2252, 0, 36, 799599, 689477,0,2753.161082
2253, 0, 36, 801305, 695967,0,2757.201581
2254, 0, 36, 798410, 689094,0,2761.108981
2255, 0, 36, 802122, 696179,0,2765.223581
2256, 0, 36, 797962, 688867,0,2769.11038
2257, 0, 36, 803076, 696058,0,2773.20258
2258, 0, 36, 797180, 688762,0,2776.97848
2259, 0, 36, 803970, 695504,0,2781.14458
2260, 0, 36, 796814, 689052,0,2785.295079
2261, 0, 36, 804371, 695566,0,2789.299779
2262, 0, 36, 796596, 689384,0,2793.190379
2263, 0, 36, 803728, 695007,0,2797.147079
2264, 0, 36, 796585, 690099,0,2801.109478
2265, 0, 36, 803740, 694732,0,2805.108778
2266, 0, 36, 796621, 690924,0,2809.048278
2267, 0, 36, 803079, 693715,0,2813.020877
2268, 0, 36, 797202, 691604,0,2816.979477
2269, 0, 36, 802922, 692626,0,2820.970577
2270, 0, 36, 797867, 692460,0,2824.952777
2271, 0, 36, 802570, 691335,0,2828.992676
2272, 0, 36, 798639, 693175,0,2833.016076
2273, 0, 36, 801779, 690746,0,2837.108976
2274, 0, 36, 799577, 694126,0,2841.053476
2275, 0, 36, 800196, 689816,0,2845.149775
2276, 0, 36, 800304, 695005,0,2849.228475
2277, 0, 36, 799363, 689297,0,2853.115175
2278, 0, 36, 801150, 696065,0,2857.133674
2279, 0, 36, 798292, 688946,0,2861.069074
2280, 0, 36, 802037, 695967,0,2865.135974
2281, 0, 36, 797645, 688751,0,2869.203174
2282, 0, 36, 803138, 695966,0,2873.156873
2283, 0, 36, 797068, 688608,0,2877.126273
2284, 0, 36, 803781, 695376,0,2881.088573
2285, 0, 36, 796777, 688865,0,2885.024273
2286, 0, 36, 804309, 695342,0,2889.119872
2287, 0, 36, 796500, 689471,0,2893.029272
2288, 0, 36, 803715, 694871,0,2897.093072
2289, 0, 36, 796621, 690044,0,2901.134071
2290, 0, 36, 803647, 694718,0,2905.074471
2291, 0, 36, 796735, 690995,0,2908.946271
2292, 0, 36, 803049, 693508,0,2913.105171
2293, 0, 36, 797151, 691674,0,2917.10677
2294, 0, 36, 803039, 692527,0,2921.11827
2295, 0, 36, 798043, 692433,0,2925.13157
2296, 0, 36, 802455, 691330,0,2929.13717
2297, 0, 36, 798877, 693315,0,2933.131369
2298, 0, 36, 801708, 690564,0,2937.084869
2299, 0, 36, 799615, 694382,0,2941.078169
2300, 0, 36, 800226, 689806,0,2944.969368
2301, 0, 36, 800398, 694994,0,2949.099468
2302, 0, 36, 799246, 689353,0,2953.331768
2303, 0, 36, 801448, 696149,0,2957.133268
2304, 0, 36, 798260, 688860,0,2961.035467
2305, 0, 36, 802091, 696113,0,2965.043167
2306, 0, 36, 797677, 688792,0,2969.041567
2307, 0, 36, 803308, 695883,0,2973.085567
2308, 0, 36, 797077, 688722,0,2976.982366
2309, 0, 36, 803969, 695396,0,2981.136066
2310, 0, 36, 796812, 688973,0,2985.059866
2311, 0, 36, 804123, 695486,0,2988.959465
2312, 0, 36, 796491, 689550,0,2993.086565
2313, 0, 36, 803646, 694902,0,2997.173265
2314, 0, 36, 796452, 690167,551,3078.379559
2315, 0, 36, 803624, 694680,522,3080.450759
2316, 0, 36, 796776, 691040,493,3080.728959
2317, 0, 36, 802967, 693434,493,3080.940759
2318, 0, 36, 797271, 691810,464,3081.156259
2319, 0, 36, 803017, 692496,435,3081.437459
2320, 0, 36, 798018, 692698,406,3081.763459
2321, 0, 36, 802377, 691274,377,3082.057859
2322, 0, 36, 798864, 693353,348,3082.324759
2323, 0, 36, 801508, 690643,319,3082.617859
2324, 0, 36, 799755, 694499,290,3082.940459
2325, 0, 36, 800121, 689697,261,3083.147259
2326, 0, 36, 800361, 695193,232,3083.384659
2327, 0, 36, 799178, 689353,203,3083.615059
2328, 0, 36, 801375, 696075,174,3084.001459
2329, 0, 36, 798126, 688896,145,3084.208959
2330, 0, 36, 802163, 696051,116,3084.412659
2331, 0, 36, 797703, 688713,87,3084.617059
2332, 0, 36, 803280, 695942,87,3084.856959
2333, 0, 36, 796962, 688734,58,3085.076359
2334, 0, 36, 804025, 695250,29,3085.318259
2335, 0, 36, 796757, 689001,0,3085.527359
2336, 0, 36, 804148, 695391,0,3088.884159
2337, 0, 36, 796409, 689414,0,3092.852058
2338, 0, 36, 803566, 694798,0,3096.920958
2339, 0, 36, 796523, 690282,0,3100.865958
2340, 0, 36, 803668, 694594,0,3105.963658
2341, 0, 36, 796867, 691007,0,3112.563257
2342, 0, 36, 802936, 693507,0,3114.109257
2343, 0, 36, 797408, 691810,0,3117.839757
2344, 0, 36, 802986, 692299,0,3121.872356
2345, 0, 36, 798054, 692619,0,3126.034556
2346, 0, 36, 802433, 691056,0,3130.501656
2347, 0, 36, 798960, 693355,435,3193.368652
2348, 0, 36, 801388, 690432,783,3245.295948
2349, 0, 36, 799756, 694380,754,3245.778448
2350, 0, 36, 800005, 689593,725,3246.568048
2351, 0, 36, 800451, 695277,696,3246.811248
2352, 0, 36, 799179, 689173,667,3247.078148
2353, 0, 36, 801492, 696151,638,3247.347648
2354, 0, 36, 797952, 688812,609,3247.567948
2355, 0, 36, 802246, 695886,580,3247.771648
2356, 0, 36, 797559, 688701,551,3247.974448
2357, 0, 36, 803267, 695888,522,3248.176948
2358, 0, 36, 796963, 688709,493,3248.378548
2359, 0, 36, 803941, 695209,464,3248.653448
2360, 0, 36, 796612, 689030,464,3248.872748
2361, 0, 36, 804100, 695312,435,3249.137148
2362, 0, 36, 796413, 689459,406,3249.345048
2363, 0, 36, 803389, 694782,377,3249.549848
2364, 0, 36, 796523, 690237,348,3249.754948
2365, 0, 36, 803550, 694472,319,3249.960748
2366, 0, 36, 796664, 691065,290,3250.165848
2367, 0, 36, 802950, 693182,261,3250.384648
2368, 0, 36, 797376, 691795,232,3250.596748
2369, 0, 36, 802786, 692201,203,3250.803948
2370, 0, 36, 798076, 692702,174,3251.011748
2371, 0, 36, 802211, 690899,145,3251.219048
2372, 0, 36, 798854, 693392,116,3251.431948
2373, 0, 36, 801262, 690365,87,3251.688548
2374, 0, 36, 799795, 694388,58,3251.902448
2375, 0, 36, 799742, 689538,29,3252.157348
2376, 0, 36, 800516, 695300,0,3252.369648
2377, 0, 36, 798937, 689083,0,3253.113647
2378, 0, 36, 801377, 696107,0,3257.712747
2379, 0, 36, 797959, 688765,0,3261.376947
2380, 0, 36, 802306, 695796,0,3265.182947
2381, 0, 36, 797328, 688604,29,3274.915646
2382, 0, 36, 803332, 695700,58,3283.151845
2383, 0, 36, 796835, 688559,116,3294.719445
2384, 0, 36, 803894, 695159,464,3347.721941
2385, 0, 36, 796577, 688975,812,3398.011738
2386, 0, 36, 803975, 695090,783,3399.007238
2387, 0, 36, 796259, 689576,754,3400.082237
2388, 0, 36, 803467, 694701,754,3401.219837
2389, 0, 36, 796452, 690216,725,3403.963737
2390, 0, 36, 803472, 694440,725,3407.040937
2391, 0, 36, 796763, 691233,725,3409.915737
2392, 0, 36, 802906, 692991,696,3412.116737
2393, 0, 36, 797342, 691884,696,3415.000236
2394, 0, 36, 802811, 692100,667,3416.055136
2395, 0, 36, 798209, 692716,667,3418.553936
2396, 0, 36, 802113, 690883,638,3419.476236
2397, 0, 36, 798994, 693463,638,3422.556136
2398, 0, 36, 801089, 690097,609,3423.690536
2399, 0, 36, 799689, 694547,609,3424.736836
2400, 0, 36, 799632, 689509,580,3425.753236
2401, 0, 36, 800197, 694992,551,3426.746936
2402, 0, 36, 797987, 688399,522,3427.741536
2403, 0, 36, 800458, 695184,551,3433.909235
2404, 0, 36, 796636, 687492,522,3434.947035
2405, 0, 36, 801034, 694626,493,3436.005935
2406, 0, 36, 796026, 687284,493,3437.350035
2407, 0, 36, 802195, 694334,464,3438.708435
2408, 0, 36, 795449, 687424,435,3439.770335
2409, 0, 36, 802707, 693799,435,3440.916335
2410, 0, 36, 795244, 687657,406,3441.919835
2411, 0, 36, 802649, 693912,377,3442.936935
2412, 0, 36, 794942, 688361,348,3443.964734
2413, 0, 36, 802111, 693298,348,3445.121934
2414, 0, 36, 795042, 689016,319,3446.198934
2415, 0, 36, 802089, 693065,290,3447.207734
2416, 0, 36, 795511, 689878,261,3448.225834
2417, 0, 36, 801419, 691596,261,3449.364034
2418, 0, 36, 796117, 690676,232,3450.396434
2419, 0, 36, 801379, 690567,203,3451.474934
2420, 0, 36, 796742, 691463,174,3452.603034
2421, 0, 36, 800621, 689448,174,3454.635434
2422, 0, 36, 797765, 692107,145,3455.693234
2423, 0, 36, 799526, 688778,145,3456.802434
2424, 0, 36, 798527, 693371,116,3457.831334
2425, 0, 36, 798349, 688008,87,3458.911133
2426, 0, 36, 799261, 694161,58,3460.188033
2427, 0, 36, 797433, 687747,58,3461.300633
2428, 0, 36, 800242, 694838,29,3462.590233
2429, 0, 36, 796365, 687409,29,3465.671933
2430, 0, 36, 801072, 694486,0,3466.844033
2431, 0, 36, 796033, 687183,0,3470.316633
2432, 0, 36, 802172, 694394,0,3474.200632
2433, 0, 36, 795374, 687401,0,3477.770332
2434, 0, 36, 802690, 693797,0,3483.213832
2435, 0, 36, 795116, 687704,0,3485.875132
2436, 0, 36, 802520, 693791,0,3490.167131
2437, 0, 36, 794938, 688301,0,3493.928331
2438, 0, 36, 802019, 693306,0,3497.892731
2439, 0, 36, 795117, 689156,232,3533.530428
2440, 0, 36, 802011, 692803,261,3542.818628
2441, 0, 36, 795489, 689948,232,3543.821628
2442, 0, 36, 801453, 691565,232,3544.904228
2443, 0, 36, 796146, 690567,203,3546.033928
2444, 0, 36, 801323, 690503,174,3547.622427
2445, 0, 36, 796865, 691597,145,3548.697427
2446, 0, 36, 800619, 689298,145,3549.816427
2447, 0, 36, 797689, 692181,116,3550.863627
2448, 0, 36, 799427, 688748,87,3551.940027
2449, 0, 36, 798584, 693244,203,3570.004826
2450, 0, 36, 798097, 688014,174,3571.748526
2451, 0, 36, 799244, 694206,174,3573.398526
2452, 0, 36, 797306, 687696,145,3574.406726
2453, 0, 36, 800309, 694865,116,3575.401826
2454, 0, 36, 796301, 687273,116,3576.962925
2455, 0, 36, 801141, 694433,87,3579.986225
2456, 0, 36, 795847, 687220,87,3583.747025
2457, 0, 36, 802097, 694328,58,3584.695925
2458, 0, 36, 795381, 687298,58,3587.507425
2459, 0, 36, 802636, 693786,29,3588.447825
2460, 0, 36, 795069, 687803,29,3591.019824
2461, 0, 36, 802548, 693731,0,3591.949524
2462, 0, 36, 795021, 688303,116,3610.081423
2463, 0, 36, 801944, 693202,87,3611.949823
2464, 0, 36, 795210, 689165,87,3614.577723
2465, 0, 36, 802045, 692840,290,3645.160421
2466, 0, 36, 795444, 690072,638,3700.100417
2467, 0, 36, 801444, 691408,725,3716.368816
2468, 0, 36, 796229, 690650,725,3717.414816
2469, 0, 36, 801218, 690414,696,3718.340416
2470, 0, 36, 797020, 691680,667,3719.561716
2471, 0, 36, 800566, 689218,667,3721.019616
2472, 0, 36, 797686, 692343,638,3722.086316
2473, 0, 36, 799392, 688660,609,3723.450215
2474, 0, 36, 798650, 693428,580,3724.457515
2475, 0, 36, 797935, 688006,580,3725.446315
2476, 0, 36, 799357, 694151,551,3726.450815
2477, 0, 36, 797202, 687491,522,3727.453815
2478, 0, 32, 829907, 694878,493,3728.452115
2479, 0, 32, 870635, 751661,493,3729.623715
2480, 0, 32, 878010, 768921,464,3730.629815
2481, 0, 32, 872597, 762317,435,3731.630815
2482, 0, 32, 879248, 769492,406,3732.588015
2483, 0, 32, 872118, 762356,406,3733.734915
2484, 0, 32, 879519, 768927,377,3734.667515
2485, 0, 32, 871881, 762824,348,3735.733815
2486, 0, 32, 879517, 768783,319,3736.493215
2487, 0, 32, 871749, 763556,348,3741.394414
2488, 0, 32, 878868, 768322,377,3750.269814
2489, 0, 32, 871972, 764216,406,3757.554613
2490, 0, 32, 878814, 767856,377,3758.478613
2491, 0, 32, 872332, 765131,348,3759.711113
2492, 0, 32, 878277, 766285,348,3760.762113
2493, 0, 32, 872964, 765890,319,3761.917713
2494, 0, 32, 878089, 765410,522,3794.085211
2495, 0, 32, 873912, 766677,522,3798.19971
2496, 0, 32, 877183, 764196,493,3799.27621
2497, 0, 32, 874655, 767476,522,3806.58001
2498, 0, 32, 876081, 763488,493,3807.58281
2499, 0, 32, 875442, 768599,464,3808.58441
2500, 0, 32, 874664, 762940,464,3809.51361
2501, 0, 32, 876257, 769298,435,3810.68961
2502, 0, 32, 873898, 762656,406,3811.709009
2503, 0, 32, 877340, 769972,406,3812.848309
2504, 0, 32, 873009, 762220,377,3813.890309
2505, 0, 32, 878050, 769490,348,3815.037509
2506, 0, 32, 872488, 762273,319,3816.047509
2507, 0, 32, 879295, 769341,319,3817.174009
2508, 0, 32, 871972, 762402,290,3818.165409
2509, 0, 32, 879533, 768819,261,3820.032109
2510, 0, 32, 871833, 762784,261,3821.368009
2511, 0, 32, 879333, 768849,377,3842.840307
2512, 0, 32, 871694, 763561,348,3843.811707
2513, 0, 32, 878827, 768222,348,3845.002107
2514, 0, 32, 871879, 764354,319,3845.979407
2515, 0, 32, 878807, 767709,290,3846.929507
2516, 0, 32, 872378, 765160,261,3848.643207
2517, 0, 32, 878150, 766197,261,3850.014407
2518, 0, 32, 872937, 765883,232,3850.954007
2519, 0, 32, 878119, 765193,203,3851.877807
2520, 0, 32, 873840, 766831,203,3855.214407
2521, 0, 32, 877156, 764128,232,3862.509406
2522, 0, 32, 874751, 767523,261,3869.542706
2523, 0, 32, 875910, 763512,290,3880.314205
2524, 0, 32, 875596, 768673,261,3880.678405
2525, 0, 32, 874691, 762898,261,3881.037205
2526, 0, 32, 876295, 769469,232,3881.271605
2527, 0, 32, 873833, 762613,203,3881.481305
2528, 0, 32, 877407, 769915,174,3881.699705
2529, 0, 32, 872899, 762257,145,3881.979505
2530, 0, 32, 878241, 769502,116,3882.229205
2531, 0, 32, 872559, 762242,87,3882.439005
2532, 0, 32, 879274, 769336,58,3883.067105
2533, 0, 32, 871906, 762386,29,3883.566705
2534, 0, 32, 879431, 768656,0,3883.958105
2535, 0, 32, 871705, 762816,0,3885.098404
2536, 0, 32, 879254, 768706,0,3889.337304
2537, 0, 32, 871597, 763460,0,3893.086604
2538, 0, 32, 878671, 768115,0,3897.399204
2539, 0, 32, 871881, 764295,0,3901.094603
2540, 0, 32, 878726, 767461,0,3905.119303
2541, 0, 32, 872367, 765184,0,3909.197403
2542, 0, 32, 878133, 766067,0,3913.022003
2543, 0, 32, 873081, 765891,0,3917.021902
2544, 0, 32, 877987, 765136,0,3921.101002
2545, 0, 32, 873869, 766818,0,3925.309202
2546, 0, 32, 876936, 763925,0,3929.125201
2547, 0, 32, 874721, 767541,0,3933.141201
2548, 0, 32, 875768, 763475,0,3937.011901
2549, 0, 32, 875664, 768613,0,3941.157201
2550, 0, 32, 874502, 762843,0,3945.1975
2551, 0, 32, 876328, 769519,0,3949.0987
2552, 0, 32, 873830, 762418,0,3952.9801
2553, 0, 32, 877488, 769892,0,3957.2703
2554, 0, 32, 872826, 762323,0,3961.195099
2555, 0, 32, 878220, 769344,0,3964.993299
2556, 0, 32, 872426, 762245,0,3969.124499
2557, 0, 32, 879343, 769322,0,3973.210398
2558, 0, 32, 871899, 762380,0,3977.043198
2559, 0, 32, 879400, 768707,0,3981.044698
2560, 0, 32, 871660, 762866,0,3985.187998
2561, 0, 32, 879310, 768757,0,3989.225197
2562, 0, 32, 871659, 763573,0,3993.125297
2563, 0, 32, 878591, 768186,0,3997.215097
2564, 0, 32, 871926, 764405,0,4001.186697
2565, 0, 32, 878687, 767376,0,4005.190896
2566, 0, 32, 872322, 765344,0,4009.100496
2567, 0, 32, 878109, 766044,0,4013.122096
2568, 0, 32, 873094, 765909,0,4017.097095
2569, 0, 32, 877879, 765141,0,4021.256395
2570, 0, 32, 874005, 766919,0,4025.017895
2571, 0, 32, 876781, 763829,0,4029.229295
2572, 0, 32, 874648, 767698,0,4033.077494
2573, 0, 32, 875659, 763362,0,4037.341294
2574, 0, 32, 875634, 768712,0,4041.074994
2575, 0, 32, 874347, 762797,0,4044.966294
2576, 0, 32, 876413, 769500,0,4049.010993
2577, 0, 32, 873639, 762441,0,4052.953693
2578, 0, 32, 877476, 769840,0,4057.096393
2579, 0, 32, 872809, 762208,0,4061.149492
2580, 0, 32, 878326, 769263,0,4065.120592
2581, 0, 32, 872216, 762248,0,4069.160492
2582, 0, 32, 879333, 769230,0,4073.088292
2583, 0, 32, 871862, 762354,0,4077.110591
2584, 0, 32, 879264, 768648,0,4081.124591
2585, 0, 32, 871668, 762948,0,4085.160991
2586, 0, 32, 879173, 768548,0,4089.165991
2587, 0, 32, 871568, 763722,0,4093.10389
2588, 0, 32, 878648, 768176,0,4097.26869
2589, 0, 32, 871977, 764425,0,4101.08149
2590, 0, 32, 878670, 767300,0,4105.166989
2591, 0, 32, 872499, 765322,0,4109.069889
2592, 0, 32, 878199, 765771,0,4113.052889
2593, 0, 32, 873156, 766022,0,4117.067989
2594, 0, 32, 877999, 765017,0,4121.156988
2595, 0, 32, 874102, 766885,0,4125.016788
2596, 0, 32, 876706, 763878,0,4129.025988
2597, 0, 32, 874854, 767847,0,4133.145888
2598, 0, 32, 875729, 763245,0,4136.976387
2599, 0, 32, 875704, 768873,0,4141.159387
2600, 0, 32, 874324, 762789,0,4145.101387
2601, 0, 32, 876495, 769501,0,4149.082687
2602, 0, 32, 873573, 762487,0,4152.855886
2603, 0, 32, 877616, 769821,0,4156.988386
2604, 0, 32, 872824, 762098,0,4161.086286
2605, 0, 32, 878386, 769310,0,4165.022485
2606, 0, 32, 872316, 762296,0,4168.924285
2607, 0, 32, 879451, 769282,0,4173.103385
2608, 0, 32, 871828, 762563,0,4176.959585
2609, 0, 32, 879326, 768644,0,4180.945784
2610, 0, 32, 871692, 762934,0,4184.953184
2611, 0, 32, 879174, 768635,0,4189.180784
2612, 0, 32, 871722, 763788,0,4192.946984
2613, 0, 32, 878722, 768063,0,4196.977183
2614, 0, 32, 871982, 764531,0,4200.969583
2615, 0, 32, 878694, 767266,0,4205.206383
2616, 0, 32, 872546, 765331,0,4209.134082
2617, 0, 32, 878017, 765796,0,4213.045582
2618, 0, 32, 873198, 766048,0,4217.039782
2619, 0, 32, 877945, 764912,0,4221.073682
2620, 0, 32, 874112, 767124,0,4225.068081
2621, 0, 32, 876605, 763875,0,4229.129781
2622, 0, 32, 874933, 767803,0,4233.045881
2623, 0, 32, 875519, 763341,0,4236.999181
2624, 0, 32, 875860, 769052,0,4241.14708
2625, 0, 32, 874341, 762595,0,4245.13598
2626, 0, 32, 876528, 769625,0,4248.82158
2627, 0, 32, 873488, 762454,0,4253.016579
2628, 0, 32, 877672, 769774,0,4257.145579
2629, 0, 32, 872656, 762156,0,4260.997079
2630, 0, 32, 878446, 769324,0,4264.966679
2631, 0, 32, 872299, 762177,0,4269.044278
2632, 0, 32, 879441, 769269,0,4273.222278
2633, 0, 32, 871808, 762512,0,4276.971078
2634, 0, 32, 879324, 768573,0,4281.033878
2635, 0, 32, 871670, 763060,0,4285.024377
2636, 0, 32, 879205, 768627,0,4289.157277
2637, 0, 32, 871702, 763728,0,4293.004677
2638, 0, 32, 878624, 767994,0,4296.957476
2639, 0, 32, 872009, 764641,0,4301.182276
2640, 0, 32, 878657, 767110,0,4305.154476
2641, 0, 32, 872564, 765381,0,4309.087276
2642, 0, 32, 878041, 765721,0,4313.077675
2643, 0, 32, 873306, 766115,0,4317.051075
2644, 0, 32, 877841, 764803,0,4321.048775
2645, 0, 32, 874193, 767110,0,4325.037475
2646, 0, 32, 876574, 763689,0,4329.033074
2647, 0, 32, 874952, 767848,0,4333.089274
2648, 0, 32, 875417, 763294,0,4337.002074
2649, 0, 32, 875858, 768899,0,4341.161073
2650, 0, 32, 874183, 762701,0,4345.016573
2651, 0, 32, 876582, 769669,0,4349.025073
2652, 0, 32, 873495, 762377,0,4353.005573
2653, 0, 32, 877765, 769782,0,4357.151072
2654, 0, 32, 872581, 762199,0,4360.951872
2655, 0, 32, 878545, 769170,0,4365.071972
2656, 0, 32, 872196, 762190,0,4369.011172
2657, 0, 32, 879427, 769222,0,4373.087671
2658, 0, 32, 871803, 762419,0,4376.898571
2659, 0, 32, 879257, 768564,0,4381.280071
2660, 0, 32, 871591, 763079,0,4387.41587
2661, 0, 32, 879165, 768464,29,4394.69417
2662, 0, 32, 871706, 763796,29,4399.518069
2663, 0, 32, 878491, 767939,58,4405.218569
2664, 0, 32, 872122, 764600,116,4417.704668
2665, 0, 32, 878573, 766999,319,4451.049066
2666, 0, 32, 872546, 765499,290,4451.760566
2667, 0, 32, 878064, 765569,261,4452.989166
2668, 0, 32, 873325, 766157,261,4454.582766
2669, 0, 32, 877624, 764726,232,4455.258566
2670, 0, 32, 874276, 767211,203,4456.627666
2671, 0, 32, 876390, 763626,203,4457.276566
2672, 0, 32, 874934, 767958,174,4457.911765
2673, 0, 32, 875352, 763206,145,4460.131765
2674, 0, 32, 875883, 769036,145,4460.857865
2675, 0, 32, 873972, 762643,116,4461.658465
2676, 0, 32, 876764, 769676,87,4463.506765
2677, 0, 32, 873438, 762330,58,4464.272265
2678, 0, 32, 877699, 769759,58,4466.244665
2679, 0, 32, 872624, 762185,29,4467.045465
2680, 0, 32, 878581, 769149,0,4467.764265
2681, 0, 32, 871994, 762210,29,4475.681264
2682, 0, 32, 879519, 769203,0,4476.470464
2683, 0, 32, 871794, 762437,0,4477.619964
2684, 0, 32, 879124, 768546,29,4485.431264
2685, 0, 32, 871691, 763094,0,4486.566264
2686, 0, 32, 879063, 768470,0,4490.137663
2687, 0, 32, 871587, 763838,0,4494.024663
2688, 0, 32, 878498, 767920,29,4500.811663
2689, 0, 32, 872058, 764642,0,4502.529762
2690, 0, 32, 878455, 766870,0,4506.130962
2691, 0, 32, 872583, 765455,261,4545.45576
2692, 0, 32, 877999, 765370,232,4546.509459
2693, 0, 32, 873346, 766185,203,4547.451359
2694, 0, 32, 877710, 764635,174,4548.556859
2695, 0, 32, 874307, 767139,174,4549.614059
2696, 0, 32, 876233, 763675,174,4552.927759
2697, 0, 32, 875018, 768040,203,4563.398158
2698, 0, 32, 875235, 763159,174,4564.342358
2699, 0, 32, 875885, 769110,174,4566.497858
2700, 0, 32, 873973, 762597,145,4567.424858
2701, 0, 32, 876795, 769688,116,4568.344758
2702, 0, 32, 873311, 762418,116,4570.248358
2703, 0, 32, 877846, 769810,87,4571.216958
2704, 0, 32, 872609, 762039,58,4572.631258
2705, 0, 32, 878645, 769177,58,4574.367558
2706, 0, 32, 872115, 762217,29,4575.978757
2707, 0, 32, 879654, 769126,29,4578.226157
2708, 0, 32, 871723, 762577,0,4580.362557
2709, 0, 32, 879278, 768604,0,4583.899457
2710, 0, 32, 871742, 763081,0,4586.377357
2711, 0, 32, 879101, 768495,0,4591.959956
2712, 0, 32, 871737, 763954,87,4605.231655
2713, 0, 32, 878535, 767823,58,4607.523655
2714, 0, 32, 872032, 764809,29,4608.475155
2715, 0, 32, 878553, 766834,29,4610.486855
2716, 0, 32, 872692, 765439,0,4611.455455
2717, 0, 32, 877929, 765452,29,4618.210655
2718, 0, 32, 873507, 766381,0,4619.384355
2719, 0, 32, 877681, 764503,0,4624.229854
2720, 0, 32, 874325, 767332,0,4625.633754
2721, 0, 32, 876204, 763641,0,4630.326854
2722, 0, 32, 875194, 768065,0,4633.791354
2723, 0, 32, 875116, 763087,0,4637.767853
2724, 0, 32, 876031, 769158,145,4661.769252
2725, 0, 32, 873917, 762534,145,4666.106051
2726, 0, 32, 876788, 769777,116,4667.974451
2727, 0, 32, 873274, 762359,145,4674.844251
2728, 0, 28, 911109, 769706,116,4675.847551
2729, 0, 28, 955783, 833792,116,4676.781251
2730, 0, 28, 964815, 852251,87,4678.086051
2731, 0, 28, 958248, 845797,58,4679.22235
2732, 0, 28, 965692, 852895,29,4680.42785
2733, 0, 28, 957724, 846168,174,4703.126449
2734, 0, 28, 965342, 852247,145,4704.198249
2735, 0, 28, 957547, 846842,145,4705.162249
2736, 0, 28, 965236, 852129,116,4706.082749
2737, 0, 28, 957743, 847571,87,4707.249549
2738, 0, 28, 964527, 851434,87,4709.841048
2739, 0, 28, 958175, 848449,58,4710.036448
2740, 0, 28, 964672, 850327,29,4710.226848
2741, 0, 28, 958789, 849260,0,4710.449948
2742, 0, 28, 964082, 848985,0,4713.033748
2743, 0, 28, 959607, 849978,0,4717.057548
2744, 0, 28, 963602, 848160,0,4720.956748
2745, 0, 28, 960507, 851059,0,4724.908747
2746, 0, 28, 962172, 847028,0,4728.932847
2747, 0, 28, 961308, 851848,0,4732.925747
2748, 0, 28, 961077, 846611,0,4736.835847
2749, 0, 28, 962214, 852845,0,4741.055946
2750, 0, 28, 959859, 846158,0,4744.890646
2751, 0, 28, 962945, 853433,0,4748.945846
2752, 0, 28, 959223, 845757,0,4752.982245
2753, 0, 28, 964115, 853323,0,4757.133145
2754, 0, 28, 958422, 845655,0,4761.074845
2755, 0, 28, 964960, 852703,0,4765.105545
2756, 0, 28, 958088, 845762,0,4768.988744
2757, 0, 28, 965745, 852814,0,4773.113644
2758, 0, 28, 957702, 846060,0,4777.044144
2759, 0, 28, 965260, 852124,0,4781.098243
2760, 0, 28, 957570, 846822,0,4785.107743
2761, 0, 28, 965264, 852050,0,4789.076543
2762, 0, 28, 957745, 847677,0,4793.135543
2763, 0, 28, 964523, 851352,0,4797.031042
2764, 0, 28, 958183, 848375,0,4801.028442
2765, 0, 28, 964648, 850203,0,4805.038542
2766, 0, 28, 958780, 849398,0,4808.972542
2767, 0, 28, 964048, 848771,0,4812.999541
2768, 0, 28, 959662, 850006,0,4817.134841
2769, 0, 28, 963510, 848053,0,4821.039441
2770, 0, 28, 960551, 850975,0,4824.977841
2771, 0, 28, 962011, 846960,0,4829.07914
2772, 0, 28, 961182, 851894,0,4833.01874
2773, 0, 28, 961029, 846528,0,4837.09824
2774, 0, 28, 962220, 852888,0,4840.994739
2775, 0, 28, 959704, 846052,0,4845.105739
2776, 0, 28, 963036, 853385,0,4849.105039
2777, 0, 28, 959202, 845763,0,4853.046839
2778, 0, 28, 964122, 853267,0,4857.033338
2779, 0, 28, 958445, 845647,0,4860.969938
2780, 0, 28, 965002, 852653,0,4864.909638
2781, 0, 28, 957950, 845814,0,4868.963338
2782, 0, 28, 965691, 852769,0,4872.882037
2783, 0, 28, 957666, 846134,0,4876.840437
2784, 0, 28, 965090, 852122,0,4880.778437
2785, 0, 28, 957619, 846884,0,4884.858936
2786, 0, 28, 965196, 851945,0,4888.887636
2787, 0, 28, 957637, 847629,0,4892.982036
2788, 0, 28, 964533, 851214,0,4896.918936
2789, 0, 28, 958278, 848446,0,4900.927635
2790, 0, 28, 964375, 850061,0,4905.319135
2791, 0, 28, 958809, 849346,0,4910.583535
2792, 0, 28, 964056, 848630,116,4930.275333
2793, 0, 28, 959647, 850144,116,4933.784833
2794, 0, 28, 963540, 847903,87,4934.874633
2795, 0, 28, 960643, 850997,58,4935.762433
2796, 0, 28, 961814, 846916,29,4936.913133
2797, 0, 28, 961359, 851947,29,4939.442933
2798, 0, 28, 960927, 846498,29,4941.293533
2799, 0, 28, 962187, 853010,29,4948.732532
2800, 0, 28, 959682, 845961,87,4960.697431
2801, 0, 28, 963134, 853359,87,4960.988231
2802, 0, 28, 959017, 845829,58,4961.309831
2803, 0, 28, 964235, 853228,29,4962.238731
2804, 0, 28, 958347, 845524,0,4962.477231
2805, 0, 28, 965020, 852661,0,4966.989531
2806, 0, 28, 957983, 845727,29,4973.88723
2807, 0, 28, 965754, 852625,0,4976.43623
2808, 0, 28, 957596, 846254,29,4983.14943
2809, 0, 28, 965179, 852116,58,4989.099029
2810, 0, 28, 957586, 846780,232,5020.101827
2811, 0, 28, 965030, 852059,232,5023.656227
2812, 0, 28, 957721, 847726,203,5024.413827
2813, 0, 28, 964536, 851108,203,5026.481327
2814, 0, 28, 958185, 848585,174,5027.177627
2815, 0, 28, 964493, 849990,145,5027.679127
2816, 0, 28, 958935, 849286,145,5029.452127
2817, 0, 28, 963868, 848562,116,5030.269727
2818, 0, 28, 959741, 850118,116,5036.176426
2819, 0, 28, 963371, 847743,116,5036.945026
2820, 0, 28, 960566, 851137,87,5038.178526
2821, 0, 28, 961819, 846885,58,5039.153826
2822, 0, 28, 961354, 851871,29,5039.947326
2823, 0, 28, 960751, 846492,0,5040.702826
2824, 0, 28, 962340, 853030,29,5044.911426
2825, 0, 28, 959618, 845882,0,5045.506726
2826, 0, 28, 963053, 853360,0,5049.708825
2827, 0, 28, 958986, 845717,0,5053.815825
2828, 0, 28, 964255, 853196,0,5058.777925
2829, 0, 28, 958229, 845543,0,5061.361824
2830, 0, 28, 965061, 852631,0,5065.732924
2831, 0, 28, 957941, 845779,0,5069.928824
2832, 0, 28, 965567, 852648,87,5088.389523
2833, 0, 28, 957636, 846220,145,5098.530722
2834, 0, 28, 965148, 851976,116,5099.877622
2835, 0, 28, 957569, 846916,116,5100.936222
2836, 0, 28, 965055, 851917,145,5110.006021
2837, 0, 28, 957779, 847678,116,5112.371221
2838, 0, 28, 964375, 850961,116,5114.622521
2839, 0, 28, 958190, 848533,116,5116.871321
2840, 0, 28, 964436, 849823,87,5118.012721
2841, 0, 28, 958867, 849392,87,5124.10082
2842, 0, 28, 963790, 848482,145,5135.561019
2843, 0, 28, 959720, 850076,116,5136.609219
2844, 0, 28, 963082, 847754,116,5137.701319
2845, 0, 28, 960553, 851214,87,5138.622719
2846, 0, 28, 961753, 846715,87,5142.788019
2847, 0, 28, 961324, 852018,58,5144.567219
2848, 0, 28, 960671, 846386,58,5145.968519
2849, 0, 28, 962352, 853007,29,5147.274219
2850, 0, 28, 959450, 845894,174,5172.565117
2851, 0, 28, 963172, 853329,174,5173.589617
2852, 0, 28, 958920, 845619,145,5174.585417
2853, 0, 28, 964271, 853174,116,5175.573617
2854, 0, 28, 958179, 845599,87,5176.459617
2855, 0, 28, 965137, 852512,87,5177.447617
2856, 0, 28, 957854, 845761,87,5183.747316
2857, 0, 28, 965541, 852660,87,5185.064416
2858, 0, 28, 957556, 846227,58,5186.089816
2859, 0, 28, 965087, 852064,29,5187.214416
2860, 0, 28, 957559, 847041,0,5188.271616
2861, 0, 28, 965019, 851840,0,5190.006716
2862, 0, 28, 957746, 847782,145,5215.048514
2863, 0, 28, 964307, 850934,116,5216.431814
2864, 0, 28, 958236, 848478,116,5217.518714
2865, 0, 28, 964378, 849744,87,5220.124514
2866, 0, 28, 958876, 849500,58,5220.370114
2867, 0, 28, 963854, 848385,29,5220.594914
2868, 0, 28, 959781, 850124,29,5220.865314
2869, 0, 28, 963028, 847687,0,5221.122314
2870, 0, 28, 960697, 851207,0,5225.054013
2871, 0, 28, 961567, 846691,0,5228.915513
2872, 0, 28, 961382, 852034,0,5232.924213
2873, 0, 28, 960635, 846227,0,5237.120912
2874, 0, 28, 962469, 853166,0,5240.978612
2875, 0, 28, 959356, 845892,0,5244.908312
2876, 0, 28, 963229, 853203,0,5248.841912
2877, 0, 28, 958767, 845566,0,5253.410011
2878, 0, 28, 964316, 853051,0,5260.187411
2879, 0, 28, 958211, 845521,0,5261.526511
2880, 0, 28, 965161, 852493,0,5265.011211
2881, 0, 28, 957822, 845821,0,5268.89021
2882, 0, 28, 965604, 852537,0,5273.18051
2883, 0, 28, 957570, 846252,0,5276.89651
2884, 0, 28, 964963, 851995,0,5280.874209
2885, 0, 28, 957564, 846989,0,5284.912009
2886, 0, 28, 965038, 851866,0,5288.903509
2887, 0, 28, 957713, 847909,0,5292.933309
2888, 0, 28, 964348, 850784,0,5297.045908
2889, 0, 28, 958239, 848624,0,5301.020808
2890, 0, 28, 964225, 849657,0,5305.070908
2891, 0, 28, 959034, 849486,0,5308.983408
2892, 0, 28, 963787, 848183,0,5312.922407
2893, 0, 28, 959789, 850207,0,5316.964707
2894, 0, 28, 963004, 847614,0,5320.906407
2895, 0, 28, 960749, 851333,0,5324.957406
2896, 0, 28, 961376, 846736,0,5328.923106
2897, 0, 28, 961479, 852182,0,5332.972706
2898, 0, 28, 960497, 846227,0,5336.881506
2899, 0, 28, 962374, 853256,0,5341.023505
2900, 0, 28, 959456, 845800,0,5344.938105
2901, 0, 28, 963359, 853218,0,5348.987205
2902, 0, 28, 958680, 845691,0,5352.877705
2903, 0, 28, 964517, 853154,0,5357.000504
2904, 0, 28, 958193, 845512,0,5361.072104
2905, 0, 28, 965148, 852508,0,5365.073804
2906, 0, 28, 957834, 845902,0,5369.059703
2907, 0, 28, 965568, 852455,0,5373.066803
2908, 0, 28, 957427, 846351,0,5376.983803
2909, 0, 28, 964968, 851978,0,5380.925903
2910, 0, 28, 957522, 846989,0,5384.882102
2911, 0, 28, 964925, 851854,0,5388.895302
2912, 0, 28, 957804, 847950,0,5392.897602
2913, 0, 28, 964341, 850547,0,5396.975902
2914, 0, 28, 958262, 848698,0,5400.885401
2915, 0, 28, 964223, 849465,0,5404.926901
2916, 0, 28, 959082, 849497,0,5408.969601
2917, 0, 28, 963669, 848200,0,5412.879301
2918, 0, 28, 959849, 850321,0,5416.9171
2919, 0, 28, 962826, 847393,0,5420.9153
2920, 0, 28, 960758, 851447,0,5424.9535
2921, 0, 28, 961315, 846674,0,5428.915199
2922, 0, 28, 961553, 852064,0,5432.883099
2923, 0, 28, 960406, 846214,0,5436.993999
2924, 0, 28, 962538, 853153,0,5441.068699
2925, 0, 28, 959283, 845648,0,5444.962798
2926, 0, 28, 963300, 853185,0,5449.014598
2927, 0, 28, 958675, 845672,0,5453.036598
2928, 0, 28, 964534, 852967,0,5456.799998
2929, 0, 28, 958021, 845589,0,5460.891297
2930, 0, 28, 965296, 852481,0,5464.793897
2931, 0, 28, 957847, 845791,0,5468.881997
2932, 0, 28, 965441, 852477,0,5472.988396
2933, 0, 28, 957498, 846406,0,5476.813596
2934, 0, 28, 964964, 851929,0,5480.872696
2935, 0, 28, 957422, 847056,0,5484.744896
2936, 0, 28, 964901, 851718,0,5488.778495
2937, 0, 28, 957785, 847880,0,5494.351995
2938, 0, 28, 964227, 850586,29,5501.684094
2939, 0, 28, 958307, 848836,0,5503.069594
2940, 0, 28, 964270, 849378,58,5515.279694
2941, 0, 28, 959067, 849689,29,5515.493494
2942, 0, 28, 963733, 848205,0,5515.702994
2943, 0, 28, 960026, 850364,0,5517.505393
2944, 0, 28, 962708, 847518,29,5525.804493
2945, 0, 28, 960768, 851524,0,5527.979693
2946, 0, 28, 961167, 846564,0,5530.658692
2947, 0, 28, 961522, 852275,0,5536.257092
2948, 0, 28, 960370, 846178,29,5543.334092
2949, 0, 28, 962692, 853229,0,5543.549792
2950, 0, 28, 959100, 845661,232,5577.421389
2951, 0, 28, 963353, 853145,203,5578.269689
2952, 0, 28, 958596, 845505,203,5581.820289
2953, 0, 28, 964426, 853015,174,5583.731189
2954, 0, 28, 957914, 845520,145,5584.476289
2955, 0, 28, 965245, 852317,145,5586.610189
2956, 0, 28, 957698, 845894,116,5587.477689
2957, 0, 28, 965392, 852492,116,5590.780588
2958, 0, 28, 957507, 846341,145,5597.490588
2959, 0, 28, 964924, 851923,116,5599.027988
2960, 0, 28, 957519, 847187,87,5599.886188
2961, 0, 28, 964914, 851546,87,5601.072888
2962, 0, 28, 957864, 847990,87,5607.598887
2963, 0, 28, 964155, 850384,87,5608.908487
2964, 0, 28, 958381, 848753,58,5610.776587
2965, 0, 28, 964201, 849293,29,5612.097887
2966, 0, 28, 959156, 849670,29,5613.259487
2967, 0, 28, 963592, 847937,0,5614.428587
2968, 0, 28, 960101, 850455,116,5635.416685
2969, 0, 28, 962581, 847426,174,5646.585185
2970, 0, 28, 960953, 851499,145,5647.911885
2971, 0, 28, 961144, 846533,145,5649.050484
2972, 0, 28, 961609, 852371,116,5650.234184
2973, 0, 28, 960260, 846109,146,5658.100884
2974, 0, 28, 962665, 853292,117,5660.409984
2975, 0, 28, 959068, 845669,118,5662.714884
2976, 0, 28, 963542, 853046,119,5664.865683
2977, 0, 28, 958643, 845604,90,5667.038283
2978, 0, 24, 1001787, 853116,120,5675.007783
2979, 0, 24, 1051627, 925476,210,5689.572682
2980, 0, 24, 1062149, 945192,180,5690.778082
2981, 0, 24, 1054400, 939332,180,5694.055981
2982, 0, 24, 1062402, 945975,150,5695.539681
2983, 0, 24, 1054275, 939881,150,5697.953781
2984, 0, 24, 1061752, 945473,120,5699.464481
2985, 0, 24, 1054402, 940682,120,5700.690281
2986, 0, 24, 1061824, 945049,90,5701.824181
2987, 0, 24, 1054577, 941573,240,5727.615279
2988, 0, 24, 1061135, 943682,240,5728.699079
2989, 0, 24, 1055292, 942289,210,5731.014579
2990, 0, 24, 1061000, 942673,210,5732.880379
2991, 0, 24, 1056096, 943279,180,5735.408079
2992, 0, 24, 1060434, 941268,210,5742.154378
2993, 0, 24, 1056888, 944038,180,5743.410078
2994, 0, 24, 1059400, 940769,180,5744.742978
2995, 0, 24, 1057894, 945124,150,5746.073978
2996, 0, 24, 1057758, 939949,270,5768.447676
2997, 0, 24, 1058595, 945985,270,5769.913276
2998, 0, 24, 1056979, 939449,270,5772.805376
2999, 0, 24, 1059587, 946895,240,5773.038076
3000, 0, 24, 1055779, 939045,210,5773.255076
3001, 0, 24, 1060432, 946430,180,5773.471476
3002, 0, 24, 1055186, 938924,150,5773.687676
3003, 0, 24, 1061619, 946496,120,5773.903176
3004, 0, 24, 1054704, 938913,90,5774.119776
3005, 0, 24, 1062183, 945828,60,5774.337176
3006, 0, 24, 1054433, 939242,30,5774.648476
3007, 0, 24, 1062258, 945760,0,5774.866876
3008, 0, 24, 1054075, 939879,0,5776.939776
3009, 0, 24, 1061738, 945357,0,5780.849975
3010, 0, 24, 1054318, 940616,0,5784.894975
3011, 0, 24, 1061699, 945064,0,5789.235875
3012, 0, 24, 1054680, 941682,0,5792.836275
3013, 0, 24, 1061099, 943523,0,5796.821674
3014, 0, 24, 1055303, 942433,90,5817.026273
3015, 0, 24, 1061073, 942590,60,5817.516673
3016, 0, 24, 1056208, 943270,60,5818.436373
3017, 0, 24, 1060225, 941241,30,5818.931373
3018, 0, 24, 1056974, 944053,0,5819.925873
3019, 0, 24, 1059282, 940517,0,5822.171373
3020, 0, 24, 1057799, 945243,30,5831.847572
3021, 0, 24, 1057723, 939842,0,5832.653872
3022, 0, 24, 1058660, 945856,0,5833.341672
3023, 0, 24, 1056747, 939311,0,5837.020572
3024, 0, 24, 1059587, 946857,0,5843.015871
3025, 0, 24, 1055753, 938839,0,5845.857771
3026, 0, 24, 1060446, 946473,0,5848.981171
3027, 0, 24, 1055205, 938922,0,5853.493871
3028, 0, 24, 1061724, 946333,0,5857.33037
3029, 0, 24, 1054517, 938874,0,5861.23347
3030, 0, 24, 1062212, 945809,0,5865.24327
3031, 0, 24, 1054365, 939222,0,5869.250869
3032, 0, 24, 1062182, 945794,0,5872.957569
3033, 0, 24, 1054097, 939936,0,5876.807269
3034, 0, 24, 1061607, 945233,0,5880.854469
3035, 0, 24, 1054285, 940746,0,5884.788268
3036, 0, 24, 1061602, 944881,0,5888.705868
3037, 0, 24, 1054648, 941542,0,5892.723868
3038, 0, 24, 1060928, 943411,0,5896.735268
3039, 0, 24, 1055260, 942358,0,5900.677867
3040, 0, 24, 1060958, 942330,0,5904.734967
3041, 0, 24, 1056106, 943302,0,5908.706067
3042, 0, 24, 1060119, 941126,0,5912.826766
3043, 0, 24, 1057055, 944100,0,5916.830066
3044, 0, 24, 1058956, 940483,0,5920.760166
3045, 0, 24, 1057902, 945279,0,5924.748166
3046, 0, 24, 1057585, 939640,0,5928.767765
3047, 0, 24, 1058631, 946096,0,5932.750065
3048, 0, 24, 1056731, 939367,0,5936.743265
3049, 0, 24, 1059827, 946890,0,5941.035165
3050, 0, 24, 1055589, 938953,0,5944.982764
3051, 0, 24, 1060609, 946489,0,5948.980164
3052, 0, 24, 1055161, 938798,0,5953.026164
3053, 0, 24, 1061672, 946278,0,5956.902763
3054, 0, 24, 1054513, 938885,0,5961.001763
3055, 0, 24, 1062235, 945682,0,5964.940263
3056, 0, 24, 1054276, 939317,0,5968.932663
3057, 0, 24, 1062127, 945726,0,5972.895962
3058, 0, 24, 1054133, 939915,0,5976.916162
3059, 0, 24, 1061514, 945145,0,5980.931662
3060, 0, 24, 1054176, 940745,0,5985.032962
3061, 0, 24, 1061612, 944749,0,5988.877961
3062, 0, 24, 1054691, 941685,0,5992.944061
3063, 0, 24, 1060927, 943346,0,5997.041861
3064, 0, 24, 1055334, 942397,0,6000.99276
3065, 0, 24, 1060917, 942207,0,6004.91546
3066, 0, 24, 1056136, 943410,0,6008.98676
3067, 0, 24, 1060000, 940917,0,6013.05416
3068, 0, 24, 1057061, 944109,0,6017.042759
3069, 0, 24, 1058852, 940427,0,6021.040359
3070, 0, 24, 1057864, 945158,0,6025.140059
3071, 0, 24, 1057412, 939678,0,6028.996259
3072, 0, 24, 1058588, 946110,0,6032.995158
3073, 0, 24, 1056587, 939228,0,6037.028858
3074, 0, 24, 1059837, 946871,0,6041.020858
3075, 0, 24, 1055478, 938902,0,6047.903757
3076, 0, 24, 1060650, 946297,30,6053.838957
3077, 0, 24, 1055033, 938737,0,6055.811357
3078, 0, 24, 1061688, 946315,30,6063.041956
3079, 0, 24, 1054472, 938864,30,6068.472856
3080, 0, 24, 1062150, 945671,30,6068.908456
3081, 0, 24, 1054201, 939424,0,6069.251756
3082, 0, 24, 1062139, 945666,30,6080.055455
3083, 0, 24, 1054065, 940012,30,6083.204755
3084, 0, 24, 1061450, 945191,0,6084.273755
3085, 0, 24, 1054288, 940796,30,6092.618854
3086, 0, 24, 1061484, 944597,30,6096.592954
3087, 0, 24, 1054545, 941705,120,6109.120053
3088, 0, 24, 1060896, 943112,270,6132.600552
3089, 0, 24, 1055372, 942361,240,6134.632451
3090, 0, 24, 1060741, 942085,210,6135.438851
3091, 0, 24, 1056243, 943429,210,6139.570451
3092, 0, 24, 1059814, 940854,210,6142.368351
3093, 0, 24, 1056960, 944226,180,6143.109351
3094, 0, 24, 1058734, 940321,210,6149.69035
3095, 0, 24, 1057999, 945236,180,6150.59715
3096, 0, 24, 1057170, 939592,150,6151.44475
3097, 0, 24, 1058717, 946061,120,6152.36405
3098, 0, 24, 1056471, 939148,120,6153.41595
3099, 0, 24, 1059788, 946851,90,6154.31345
3100, 0, 24, 1055485, 938856,90,6160.35545
3101, 0, 24, 1060707, 946301,90,6161.62365
3102, 0, 24, 1054905, 938783,60,6163.727449
3103, 0, 24, 1061844, 946226,180,6183.285048
3104, 0, 24, 1054397, 938857,300,6202.281647
3105, 0, 24, 1062126, 945616,270,6204.633647
3106, 0, 24, 1054259, 939402,300,6210.261946
3107, 0, 24, 1062066, 945534,360,6222.735245
3108, 0, 24, 1053993, 940071,360,6228.468945
3109, 0, 24, 1061510, 945127,360,6229.808445
3110, 0, 24, 1054330, 940822,360,6234.240045
3111, 0, 24, 1061461, 944578,330,6235.806245
3112, 0, 24, 1054801, 941853,330,6236.797244
3113, 0, 24, 1060931, 943024,300,6238.258844
3114, 0, 24, 1055420, 942550,270,6239.386344
3115, 0, 24, 1060793, 942031,420,6263.398143
3116, 0, 24, 1056301, 943397,390,6264.653543
3117, 0, 24, 1059806, 940883,390,6268.044742
3118, 0, 24, 1057201, 944343,390,6270.508142
3119, 0, 24, 1058607, 940133,390,6276.450542
3120, 0, 24, 1057995, 945407,390,6278.605542
3121, 0, 24, 1057154, 939538,360,6280.116441
3122, 0, 24, 1058874, 946136,510,6303.12304
3123, 0, 24, 1056309, 939243,480,6304.55344
3124, 0, 24, 1059973, 946791,480,6307.52244
3125, 0, 24, 1055445, 938749,450,6307.72324
3126, 0, 24, 1060745, 946298,420,6307.94104
3127, 0, 24, 1054931, 938794,390,6308.17004
3128, 0, 24, 1061910, 946118,360,6308.40904
3129, 0, 24, 1054335, 938946,330,6308.62284
3130, 0, 24, 1062156, 945674,330,6308.85184
3131, 0, 24, 1054225, 939400,300,6309.22794
3132, 0, 24, 1062023, 945594,270,6309.581839
3133, 0, 24, 1054110, 940129,240,6309.798539
3134, 0, 24, 1061442, 944969,210,6310.012339
3135, 0, 24, 1054258, 940958,180,6310.226339
3136, 0, 24, 1061455, 944435,150,6310.441639
3137, 0, 24, 1054833, 941816,120,6310.658639
3138, 0, 24, 1060797, 942944,90,6310.880239
3139, 0, 24, 1055445, 942519,60,6311.079439
3140, 0, 24, 1060737, 941857,30,6311.279039
3141, 0, 24, 1056251, 943566,0,6311.479139
3142, 0, 24, 1059643, 940751,0,6312.918639
3143, 0, 24, 1057221, 944209,0,6317.070739
3144, 0, 24, 1058463, 940194,0,6321.130639
3145, 0, 24, 1058022, 945509,0,6324.926138
3146, 0, 24, 1057014, 939352,0,6328.778138
3147, 0, 24, 1058767, 946239,0,6332.812738
3148, 0, 24, 1056269, 939078,0,6336.788038
3149, 0, 24, 1059973, 946698,0,6340.844137
3150, 0, 24, 1055216, 938804,0,6344.779737
3151, 0, 24, 1060766, 946261,0,6348.798337
3152, 0, 24, 1054894, 938698,0,6352.773237
3153, 0, 24, 1061902, 946203,0,6356.857736
3154, 0, 24, 1054274, 938991,0,6361.024436
3155, 0, 24, 1062149, 945545,0,6365.004836
3156, 0, 24, 1054044, 939408,0,6368.950335
3157, 0, 24, 1061919, 945511,0,6372.988135
3158, 0, 24, 1053992, 940052,0,6377.019335
3159, 0, 24, 1061306, 944888,0,6380.997635
3160, 0, 24, 1054243, 940991,0,6385.015134
3161, 0, 24, 1061379, 944216,0,6389.025134
3162, 0, 24, 1054684, 941830,0,6392.998934
3163, 0, 24, 1060722, 942810,0,6397.037134
3164, 0, 24, 1055512, 942588,0,6401.032133
3165, 0, 24, 1060608, 941830,0,6404.950833
3166, 0, 24, 1056336, 943551,0,6408.966833
3167, 0, 24, 1059565, 940561,0,6412.975132
3168, 0, 24, 1057250, 944386,0,6416.980632
3169, 0, 24, 1058267, 940054,0,6421.098832
3170, 0, 24, 1058089, 945365,0,6424.979232
3171, 0, 24, 1056834, 939300,0,6428.984231
3172, 0, 24, 1058799, 946256,0,6433.043131
3173, 0, 24, 1056194, 938969,0,6436.935631
3174, 0, 24, 1060068, 946652,0,6441.008831
3175, 0, 24, 1055174, 938663,0,6444.96903
3176, 0, 24, 1060937, 946107,0,6448.85713
3177, 0, 24, 1054750, 938730,0,6453.07343
3178, 0, 24, 1061970, 946138,0,6456.931529
3179, 0, 24, 1054279, 938887,0,6460.951229
3180, 0, 24, 1062049, 945427,0,6465.000729
3181, 0, 24, 1054024, 939474,0,6468.992929
3182, 0, 24, 1061954, 945397,0,6473.014928
3183, 0, 24, 1053976, 940120,0,6477.009328
3184, 0, 24, 1061231, 944905,0,6480.926628
3185, 0, 24, 1054269, 940955,0,6484.966928
3186, 0, 24, 1061303, 944050,0,6488.994527
3187, 0, 24, 1054704, 941886,0,6492.972827
3188, 0, 24, 1060719, 942601,0,6496.959527
3189, 0, 24, 1055570, 942614,0,6500.964826
3190, 0, 24, 1060487, 941707,0,6504.918026
3191, 0, 24, 1056518, 943707,0,6509.035826
3192, 0, 24, 1059434, 940533,0,6512.988426
3193, 0, 24, 1057242, 944501,0,6516.932925
3194, 0, 24, 1058246, 940008,0,6521.025425
3195, 0, 24, 1058219, 945629,0,6525.075525
3196, 0, 24, 1056803, 939434,0,6528.996325
3197, 0, 24, 1059061, 946406,0,6532.938124
3198, 0, 24, 1056153, 939038,0,6536.910224
3199, 0, 24, 1060102, 946766,0,6541.037524
3200, 0, 24, 1055199, 938788,0,6545.035923
3201, 0, 24, 1060958, 946080,0,6549.049223
3202, 0, 24, 1054669, 938872,0,6553.014523
3203, 0, 24, 1062086, 946216,0,6556.984823
3204, 0, 24, 1054259, 938967,0,6560.899922
3205, 0, 24, 1061992, 945532,0,6564.988222
3206, 0, 24, 1054094, 939581,0,6569.032322
3207, 0, 24, 1061965, 945406,0,6573.052522
3208, 0, 24, 1054004, 940397,0,6576.959621
3209, 0, 24, 1061335, 944945,0,6580.961421
3210, 0, 24, 1054448, 941174,0,6584.945621
3211, 0, 24, 1061312, 944105,0,6588.90592
3212, 0, 24, 1054932, 942013,0,6592.90502
3213, 0, 24, 1060777, 942501,0,6597.91992
3214, 0, 24, 1055687, 942809,30,6605.973519
3215, 0, 24, 1060606, 941791,0,6607.992219
3216, 0, 24, 1056673, 943805,0,6610.425619
3217, 0, 24, 1059292, 940515,30,6617.416119
3218, 0, 24, 1057443, 944614,30,6623.541118
3219, 0, 24, 1058154, 939883,30,6624.824718
3220, 0, 24, 1058300, 945780,0,6625.178118
3221, 0, 24, 1056757, 939345,0,6629.674418
3222, 0, 24, 1059059, 946350,0,6636.417117
3223, 0, 24, 1055987, 939065,0,6638.471217
3224, 0, 24, 1060271, 946775,30,6646.113517
3225, 0, 24, 1055201, 938633,30,6651.459716
3226, 0, 24, 1061051, 946289,0,6652.203716
3227, 0, 24, 1054735, 938869,247,6684.654014
3228, 0, 20, 1105569, 946220,217,6685.657514
3229, 0, 20, 1163362, 1031578,217,6689.122614
3230, 0, 20, 1174897, 1052899,248,6699.736213
3231, 0, 20, 1167036, 1047614,248,6700.883413
3232, 0, 20, 1174932, 1053725,248,6706.733412
3233, 0, 20, 1166974, 1048543,217,6707.780412
3234, 0, 20, 1174442, 1053012,186,6708.523312
3235, 0, 20, 1167326, 1049439,186,6710.274412
3236, 0, 20, 1174420, 1052147,155,6711.045112
3237, 0, 20, 1167913, 1050219,217,6723.463011
3238, 0, 20, 1173695, 1050589,310,6740.51881
3239, 0, 20, 1168616, 1051036,310,6741.42571
3240, 0, 20, 1173498, 1049634,279,6742.24531
3241, 0, 20, 1169484, 1052022,279,6748.48951
3242, 0, 20, 1172105, 1048516,279,6751.129709
3243, 0, 20, 1170420, 1052838,279,6754.558509
3244, 0, 20, 1170920, 1048001,248,6755.412009
3245, 0, 20, 1171368, 1054045,248,6757.304309
3246, 0, 20, 1169581, 1047334,217,6759.163609
3247, 0, 20, 1172172, 1054749,217,6761.118309
3248, 0, 20, 1168832, 1047108,186,6762.936309
3249, 0, 20, 1173368, 1054821,248,6775.577608
3250, 0, 20, 1167911, 1046743,279,6781.799007
3251, 0, 20, 1174128, 1054275,248,6783.289407
3252, 0, 20, 1167531, 1046758,217,6784.464107
3253, 0, 20, 1175150, 1054296,217,6787.613907
3254, 0, 20, 1167011, 1047148,217,6788.725207
3255, 0, 20, 1175029, 1053566,186,6791.453207
3256, 0, 20, 1166869, 1047722,186,6792.989607
3257, 0, 20, 1174865, 1053625,155,6794.470806
3258, 0, 20, 1166922, 1048479,124,6795.759406
3259, 0, 20, 1174172, 1053016,124,6796.878906
3260, 0, 20, 1167249, 1049460,248,6818.071505
3261, 0, 20, 1174255, 1051957,217,6819.309505
3262, 0, 20, 1167888, 1050245,217,6821.720305
3263, 0, 20, 1173678, 1050477,217,6827.716504
3264, 0, 20, 1168692, 1050990,217,6828.853404
3265, 0, 20, 1173396, 1049492,186,6830.535004
3266, 0, 20, 1169573, 1052142,248,6854.525302
3267, 0, 20, 1171907, 1048360,310,6856.392102
3268, 0, 20, 1170420, 1052900,310,6859.318302
3269, 0, 20, 1170738, 1047825,279,6859.544902
3270, 0, 20, 1171359, 1054013,248,6859.769102
3271, 0, 20, 1169444, 1047206,217,6859.993302
3272, 0, 20, 1172107, 1054669,186,6860.217202
3273, 0, 20, 1168763, 1046865,155,6860.454702
3274, 0, 20, 1173356, 1054791,155,6860.681502
3275, 0, 20, 1167782, 1046612,124,6861.023102
3276, 0, 20, 1174155, 1054086,93,6861.254002
3277, 0, 20, 1167466, 1046657,62,6861.477802
3278, 0, 20, 1175110, 1054235,31,6861.701202
3279, 0, 20, 1167004, 1047027,0,6861.924802
3280, 0, 20, 1174908, 1053550,0,6864.942302
3281, 0, 20, 1166717, 1047744,0,6868.846201
3282, 0, 20, 1174780, 1053446,0,6872.914901
3283, 0, 20, 1166865, 1048440,0,6877.008401
3284, 0, 20, 1174061, 1052853,0,6880.799701
3285, 0, 20, 1167291, 1049411,0,6884.7548
3286, 0, 20, 1174191, 1051738,0,6888.8292
3287, 0, 20, 1167753, 1050270,0,6892.8954
3288, 0, 20, 1173610, 1050225,0,6896.8132
3289, 0, 20, 1168690, 1050954,0,6900.868699
3290, 0, 20, 1173170, 1049398,0,6904.750999
3291, 0, 20, 1169623, 1052062,0,6908.818099
3292, 0, 20, 1171779, 1048234,0,6912.885098
3293, 0, 20, 1170347, 1052942,0,6916.809598
3294, 0, 20, 1170730, 1047765,0,6920.734898
3295, 0, 20, 1171499, 1054112,0,6924.731998
3296, 0, 20, 1169270, 1047198,0,6928.771197
3297, 0, 20, 1172235, 1054744,0,6932.687497
3298, 0, 20, 1168666, 1046843,0,6936.820097
3299, 0, 20, 1173385, 1054870,0,6940.969497
3300, 0, 20, 1167782, 1046697,0,6944.881396
3301, 0, 20, 1174258, 1054145,0,6948.966296
3302, 0, 20, 1167197, 1046747,0,6952.976596
3303, 0, 20, 1175191, 1054098,0,6956.967295
3304, 0, 20, 1166924, 1047073,0,6960.977995
3305, 0, 20, 1174797, 1053569,0,6964.953595
3306, 0, 20, 1166857, 1047782,0,6968.969595
3307, 0, 20, 1174760, 1053468,0,6972.958194
3308, 0, 20, 1166748, 1048578,0,6976.939294
3309, 0, 20, 1174051, 1052749,0,6980.954494
3310, 0, 20, 1167280, 1049459,0,6984.985994
3311, 0, 20, 1174067, 1051689,0,6988.921693
3312, 0, 20, 1167903, 1050265,0,6992.926693
3313, 0, 20, 1173521, 1050090,0,6996.979393
3314, 0, 20, 1168674, 1051081,0,7000.961292
3315, 0, 20, 1173114, 1049325,0,7004.956592
3316, 0, 20, 1169651, 1052087,0,7008.940792
3317, 0, 20, 1171561, 1048229,0,7013.066792
3318, 0, 20, 1170455, 1053013,0,7016.981191
3319, 0, 20, 1170523, 1047637,0,7020.960391
3320, 0, 20, 1171406, 1054179,0,7024.995591
3321, 0, 20, 1169183, 1047115,0,7029.134991
3322, 0, 20, 1172309, 1054669,0,7032.97379
3323, 0, 20, 1168514, 1046892,0,7036.96819
3324, 0, 20, 1173487, 1054771,0,7040.97289
3325, 0, 20, 1167717, 1046588,0,7044.954789
3326, 0, 20, 1174322, 1054141,0,7048.993789
3327, 0, 20, 1167294, 1046788,0,7052.907389
3328, 0, 20, 1175266, 1054073,0,7056.947589
3329, 0, 20, 1166849, 1047198,0,7060.931788
3330, 0, 20, 1174833, 1053504,0,7065.001188
3331, 0, 20, 1166841, 1047651,0,7068.873988
3332, 0, 20, 1174658, 1053397,0,7072.971188
3333, 0, 20, 1166903, 1048620,0,7076.930887
3334, 0, 20, 1174047, 1052534,0,7080.958087
3335, 0, 20, 1167307, 1049487,0,7084.929087
3336, 0, 20, 1174074, 1051505,0,7088.935886
3337, 0, 20, 1168001, 1050344,0,7092.933486
3338, 0, 20, 1173445, 1050069,0,7096.969286
3339, 0, 20, 1168784, 1051134,0,7100.920486
3340, 0, 20, 1173071, 1049122,0,7104.943685
3341, 0, 20, 1169676, 1052238,0,7109.060885
3342, 0, 20, 1171495, 1048256,0,7112.983085
3343, 0, 20, 1170536, 1052945,0,7116.968785
3344, 0, 20, 1170347, 1047624,0,7120.916184
3345, 0, 20, 1171481, 1054230,0,7125.056784
3346, 0, 20, 1169091, 1047043,0,7129.019684
3347, 0, 20, 1172264, 1054786,0,7132.910883
3348, 0, 20, 1168440, 1046830,0,7136.986583
3349, 0, 20, 1173570, 1054635,0,7140.967583
3350, 0, 20, 1167573, 1046647,0,7145.030383
3351, 0, 20, 1174385, 1054136,0,7149.020582
3352, 0, 20, 1167313, 1046790,0,7153.221882
3353, 0, 20, 1175162, 1054153,0,7157.280082
3354, 0, 20, 1166759, 1047148,0,7164.328581
3355, 0, 20, 1174741, 1053357,0,7165.823881
3356, 0, 20, 1166701, 1047814,31,7173.567081
3357, 0, 20, 1174676, 1053385,31,7180.46958
3358, 0, 20, 1166911, 1048657,31,7181.91438
3359, 0, 20, 1173918, 1052511,0,7182.14358
3360, 0, 20, 1167298, 1049601,0,7186.46388
3361, 0, 20, 1174010, 1051317,31,7196.052579
3362, 0, 20, 1167928, 1050294,31,7197.310179
3363, 0, 20, 1173437, 1049932,31,7203.844779
3364, 0, 20, 1168863, 1051183,62,7210.466178
3365, 0, 20, 1172931, 1049114,31,7212.572878
3366, 0, 20, 1169734, 1052265,310,7250.695175
3367, 0, 20, 1171402, 1048030,279,7251.572675
3368, 0, 20, 1170570, 1053118,248,7252.173175
3369, 0, 20, 1170274, 1047604,248,7254.170475
3370, 0, 20, 1171619, 1054178,217,7254.859175
3371, 0, 20, 1168947, 1046967,217,7257.272275
3372, 0, 20, 1172314, 1054681,186,7258.539175
3373, 0, 20, 1168369, 1046671,155,7260.033175
3374, 0, 20, 1173582, 1054588,186,7266.034374
3375, 0, 20, 1167548, 1046607,155,7266.805774
3376, 0, 20, 1174546, 1053964,124,7267.439474
3377, 0, 20, 1167239, 1046781,93,7268.422574
3378, 0, 20, 1175188, 1054034,124,7275.161974
3379, 0, 20, 1166799, 1047114,93,7275.937774
3380, 0, 20, 1174669, 1053334,93,7276.877774
3381, 0, 20, 1166727, 1047882,62,7277.710674
3382, 0, 20, 1174633, 1053208,31,7279.281173
3383, 0, 20, 1166826, 1048699,0,7280.108573
3384, 0, 20, 1173894, 1052481,0,7281.421773
3385, 0, 20, 1167384, 1049631,217,7314.864371
3386, 0, 20, 1174009, 1051285,186,7315.795071
3387, 0, 20, 1167894, 1050413,186,7316.864471
3388, 0, 20, 1173403, 1049816,186,7321.075471
3389, 0, 20, 1168843, 1051160,186,7326.32787
3390, 0, 20, 1172740, 1048997,186,7329.61907
3391, 0, 20, 1169856, 1052317,155,7332.39147
3392, 0, 20, 1171278, 1047966,155,7334.51547
3393, 0, 20, 1170516, 1053172,124,7336.33387
3394, 0, 20, 1170236, 1047473,124,7338.355869
3395, 0, 20, 1171639, 1054336,93,7340.453869
3396, 0, 20, 1168849, 1047030,186,7352.865268
3397, 0, 20, 1172510, 1054763,186,7358.438968
3398, 0, 20, 1168306, 1046725,155,7359.234368
3399, 0, 20, 1173592, 1054617,124,7360.055368
3400, 0, 20, 1167539, 1046626,124,7360.894168
3401, 0, 20, 1174566, 1053965,93,7361.896268
3402, 0, 20, 1167028, 1046844,93,7364.850368
3403, 0, 20, 1175213, 1054067,62,7367.602667
3404, 0, 20, 1166876, 1047226,31,7368.499967
3405, 0, 20, 1174601, 1053453,31,7369.668767
3406, 0, 20, 1166747, 1047932,0,7370.479967
3407, 0, 20, 1174645, 1053217,155,7395.458466
3408, 0, 20, 1166808, 1048845,124,7396.533366
3409, 0, 20, 1173942, 1052329,124,7397.766465
3410, 0, 20, 1167396, 1049550,124,7401.357165
3411, 0, 20, 1173784, 1051182,124,7407.591365
3412, 0, 20, 1168080, 1050557,124,7409.089365
3413, 0, 20, 1173328, 1049630,93,7410.394665
3414, 0, 20, 1168865, 1051280,62,7411.514764
3415, 0, 20, 1172735, 1048942,186,7431.002163
3416, 0, 20, 1169927, 1052321,217,7436.724563
3417, 0, 20, 1171055, 1047930,186,7437.951663
3418, 0, 20, 1170706, 1053202,155,7439.093963
3419, 0, 20, 1170113, 1047371,155,7441.728262
3420, 0, 20, 1171684, 1054373,124,7441.940562
3421, 0, 20, 1168813, 1046952,93,7442.168462
3422, 0, 20, 1172516, 1054588,62,7442.418262
3423, 0, 20, 1168169, 1046765,31,7442.666662
3424, 0, 20, 1173799, 1054645,0,7442.915262
3425, 0, 20, 1167505, 1046534,0,7444.886462
3426, 0, 20, 1174586, 1054068,0,7448.861962
3427, 0, 20, 1167142, 1046884,0,7452.725362
3428, 0, 20, 1175179, 1053910,0,7456.875861
3429, 0, 20, 1166675, 1047299,0,7460.761561
3430, 0, 20, 1174581, 1053375,0,7464.723861
3431, 0, 20, 1166823, 1047894,0,7468.716261
3432, 0, 20, 1174551, 1053234,0,7472.68656
3433, 0, 20, 1166937, 1048911,0,7476.69736
3434, 0, 20, 1173939, 1052193,0,7481.51956
3435, 0, 20, 1167413, 1049766,0,7484.78486
3436, 0, 20, 1173860, 1051082,0,7488.774159
3437, 0, 20, 1168196, 1050506,0,7492.740159
3438, 0, 20, 1173249, 1049650,0,7496.807859
3439, 0, 20, 1169012, 1051369,0,7500.770958
3440, 0, 20, 1172666, 1048851,0,7504.738158
3441, 0, 20, 1169968, 1052482,0,7508.757158
3442, 0, 20, 1171063, 1047959,0,7512.757858
3443, 0, 20, 1170759, 1053312,0,7516.816057
3444, 0, 20, 1169861, 1047417,0,7520.876257
3445, 0, 20, 1171694, 1054444,0,7524.965257
3446, 0, 20, 1168724, 1046884,0,7528.882257
3447, 0, 20, 1172505, 1054689,0,7532.928456
3448, 0, 20, 1168061, 1046732,0,7536.949756
3449, 0, 20, 1173828, 1054476,0,7540.855456
3450, 0, 20, 1167364, 1046596,0,7544.938955
3451, 0, 20, 1174641, 1053912,0,7548.848755
3452, 0, 20, 1167055, 1046828,0,7552.968655
3453, 0, 20, 1175028, 1053902,0,7556.921755
3454, 0, 20, 1166652, 1047336,0,7560.951454
3455, 0, 20, 1174578, 1053300,0,7564.938354
3456, 0, 20, 1166702, 1048077,0,7568.950354
3457, 0, 20, 1174506, 1053244,0,7573.032753
3458, 0, 20, 1166955, 1048940,0,7576.951353
3459, 0, 20, 1173813, 1052144,0,7580.887853
3460, 0, 20, 1167453, 1049809,0,7584.904653
3461, 0, 20, 1173871, 1050860,0,7588.882152
3462, 0, 20, 1168152, 1050660,0,7592.709852
3463, 0, 20, 1173136, 1049549,0,7596.964152
3464, 0, 20, 1169051, 1051343,0,7600.948252
3465, 0, 20, 1172386, 1048746,0,7604.947051
3466, 0, 20, 1169981, 1052535,0,7608.809451
3467, 0, 20, 1170966, 1047756,0,7612.908951
3468, 0, 20, 1170840, 1053346,0,7616.994351
3469, 0, 20, 1169881, 1047388,0,7620.96545
3470, 0, 20, 1171834, 1054460,0,7624.94115
3471, 0, 20, 1168618, 1046819,0,7628.95705
3472, 0, 20, 1172617, 1054588,0,7632.934349
3473, 0, 20, 1168070, 1046595,0,7636.955849
3474, 0, 20, 1173886, 1054485,0,7640.965849
3475, 0, 20, 1167299, 1046564,0,7644.852849
3476, 0, 20, 1174634, 1053796,0,7648.860148
3477, 0, 20, 1166941, 1046769,0,7652.874548
3478, 0, 16, 1226899, 1053535,0,7656.915748
3479, 0, 16, 1297510, 1155813,0,7660.919548
3480, 0, 16, 1309908, 1179627,0,7664.895247
3481, 0, 16, 1302103, 1175265,0,7668.929247
3482, 0, 16, 1310122, 1180343,0,7672.987547
3483, 0, 16, 1302369, 1176176,0,7676.861846
3484, 0, 16, 1309336, 1179195,0,7680.899646
3485, 0, 16, 1302925, 1176959,0,7684.923046
3486, 0, 16, 1309356, 1178018,0,7688.911346
3487, 0, 16, 1303648, 1178021,0,7692.877545
3488, 0, 16, 1308711, 1176495,0,7697.026045
3489, 0, 16, 1304659, 1178707,0,7700.897645
3490, 0, 16, 1307813, 1175906,0,7704.827345
3491, 0, 16, 1305570, 1179882,0,7708.807344
3492, 0, 16, 1306176, 1174772,0,7715.167044
3493, 0, 16, 1306212, 1180781,31,7722.394743
3494, 0, 16, 1305156, 1174402,0,7724.392743
3495, 0, 16, 1307456, 1181828,0,7725.332443
3496, 0, 16, 1303882, 1173924,0,7730.505443
3497, 0, 16, 1308331, 1181856,31,7738.254342
3498, 0, 16, 1303403, 1173661,0,7739.468942
3499, 0, 16, 1309423, 1181767,31,7744.712842
3500, 0, 16, 1302684, 1173685,31,7750.430341
3501, 0, 16, 1310388, 1181053,0,7752.460641
3502, 0, 16, 1302244, 1173988,0,7754.690241
3503, 0, 16, 1310655, 1181174,31,7761.904741
3504, 0, 16, 1301985, 1174456,0,7764.32144
3505, 0, 16, 1309906, 1180550,31,7769.83794
3506, 0, 16, 1302061, 1175303,0,7770.26284
3507, 0, 16, 1310001, 1180231,186,7797.105738
3508, 0, 16, 1302191, 1176241,248,7812.156837
3509, 0, 16, 1309295, 1179053,248,7814.044337
3510, 0, 16, 1302971, 1176947,217,7814.955637
3511, 0, 16, 1309167, 1177862,217,7817.032637
3512, 0, 16, 1303811, 1178019,217,7823.347136
3513, 0, 16, 1308634, 1176433,186,7824.331936
3514, 0, 16, 1304583, 1178821,186,7825.412036
3515, 0, 16, 1307690, 1175750,155,7826.305136
3516, 0, 16, 1305609, 1179942,124,7827.119636
3517, 0, 16, 1306044, 1174864,155,7832.925836
3518, 0, 16, 1306469, 1180917,124,7833.854536
3519, 0, 16, 1305214, 1174358,93,7835.340936
3520, 0, 16, 1307535, 1182053,124,7843.642035
3521, 0, 16, 1303935, 1173939,279,7865.693534
3522, 0, 16, 1308425, 1181814,248,7866.383934
3523, 0, 16, 1303276, 1173769,217,7866.928833
3524, 0, 16, 1309622, 1181767,186,7867.599033
3525, 0, 16, 1302662, 1173622,155,7868.162833
3526, 0, 16, 1310350, 1181108,217,7877.656733
3527, 0, 16, 1302371, 1174060,186,7878.335533
3528, 0, 16, 1310697, 1181067,155,7880.080933
3529, 0, 16, 1301989, 1174609,155,7881.890032
3530, 0, 16, 1310064, 1180580,124,7882.428032
3531, 0, 16, 1302155, 1175368,93,7884.069832
3532, 0, 16, 1310008, 1180343,93,7884.767532
3533, 0, 16, 1302362, 1176395,62,7886.664132
3534, 0, 16, 1309327, 1178868,31,7888.435532
3535, 0, 16, 1302950, 1177157,31,7890.732032
3536, 0, 16, 1309260, 1177826,155,7908.713831
3537, 0, 16, 1303860, 1177993,124,7909.909231
3538, 0, 16, 1308555, 1176435,93,7910.93983
3539, 0, 16, 1304787, 1178885,62,7912.14703
3540, 0, 16, 1307632, 1175570,62,7913.51363
3541, 0, 16, 1305614, 1180121,62,7917.66693
3542, 0, 16, 1306003, 1174753,31,7918.72313
3543, 0, 16, 1306483, 1180843,0,7920.46833
3544, 0, 16, 1304969, 1174276,0,7921.52473
3545, 0, 16, 1307641, 1182013,62,7933.565029
3546, 0, 16, 1303911, 1173797,155,7949.017328
3547, 0, 16, 1308440, 1181827,124,7950.111928
3548, 0, 16, 1303206, 1173745,93,7951.236328
3549, 0, 16, 1309769, 1181662,93,7953.197228
3550, 0, 16, 1302537, 1173737,124,7961.578927
3551, 0, 16, 1310405, 1181039,93,7962.807927
3552, 0, 16, 1302313, 1174002,62,7964.072427
3553, 0, 16, 1310520, 1181080,62,7965.210227
3554, 0, 16, 1301985, 1174669,62,7970.434726
3555, 0, 16, 1310016, 1180364,186,7991.349025
3556, 0, 16, 1302042, 1175452,155,7992.342625
3557, 0, 16, 1309913, 1180243,155,7993.303125
3558, 0, 16, 1302497, 1176459,155,7996.858725
3559, 0, 16, 1309243, 1178869,124,7997.114325
3560, 0, 16, 1303023, 1177236,93,7997.342125
3561, 0, 16, 1309275, 1177619,62,7997.571625
3562, 0, 16, 1303832, 1178164,31,7997.802925
3563, 0, 16, 1308514, 1176374,0,7998.029425
3564, 0, 16, 1304875, 1178980,0,8000.812024
3565, 0, 16, 1307460, 1175651,0,8004.717324
3566, 0, 16, 1305762, 1180236,0,8008.729924
3567, 0, 16, 1305914, 1174685,0,8013.093524
3568, 0, 16, 1306553, 1181071,0,8016.725823
3569, 0, 16, 1304879, 1174324,0,8020.731623
3570, 0, 16, 1307675, 1181974,0,8024.770023
3571, 0, 16, 1303732, 1173789,0,8028.669322
3572, 0, 16, 1308470, 1181823,0,8032.698422
3573, 0, 16, 1303232, 1173671,0,8036.685922
3574, 0, 16, 1309830, 1181588,0,8040.720422
3575, 0, 16, 1302547, 1173733,0,8044.874421
3576, 0, 16, 1310432, 1180936,0,8048.949221
3577, 0, 16, 1302217, 1174041,0,8052.883621
3578, 0, 16, 1310462, 1181042,0,8056.855621
3579, 0, 16, 1301917, 1174632,0,8060.86102
3580, 0, 16, 1309858, 1180408,0,8064.91242
3581, 0, 16, 1302054, 1175489,0,8068.95022
3582, 0, 16, 1309931, 1180071,0,8072.807819
3583, 0, 16, 1302417, 1176452,0,8076.847119
3584, 0, 16, 1309184, 1178674,0,8080.899119
3585, 0, 16, 1303073, 1177156,0,8085.147319
3586, 0, 16, 1309163, 1177427,0,8088.852718
3587, 0, 16, 1303814, 1178155,0,8092.914118
3588, 0, 16, 1308395, 1176059,0,8096.936218
3589, 0, 16, 1304839, 1178931,0,8100.994418
3590, 0, 16, 1307232, 1175506,0,8104.907717
3591, 0, 16, 1305716, 1180105,0,8108.885117
3592, 0, 16, 1305662, 1174569,0,8112.864817
3593, 0, 16, 1306510, 1181073,0,8116.853016
3594, 0, 16, 1304798, 1174193,0,8120.871316
3595, 0, 16, 1307677, 1181913,0,8124.888516
3596, 0, 16, 1303542, 1173768,0,8128.940416
3597, 0, 16, 1308625, 1181663,0,8132.902815
3598, 0, 16, 1303088, 1173627,0,8136.967315
3599, 0, 16, 1309688, 1181632,0,8140.866415
3600, 0, 16, 1302484, 1173711,0,8144.920315
3601, 0, 16, 1310434, 1180862,0,8149.025914
3602, 0, 16, 1302106, 1174093,0,8152.842714
3603, 0, 16, 1310510, 1181016,0,8156.900114
3604, 0, 16, 1302013, 1174706,0,8160.944713
3605, 0, 16, 1309760, 1180425,0,8164.975413
3606, 0, 16, 1302119, 1175545,0,8168.882013
3607, 0, 16, 1309821, 1179961,0,8172.882513
3608, 0, 16, 1302325, 1176574,0,8176.899712
3609, 0, 16, 1309221, 1178628,0,8180.828012
3610, 0, 16, 1303140, 1177257,0,8184.863912
3611, 0, 16, 1308965, 1177427,0,8188.882012
3612, 0, 16, 1303987, 1178242,0,8192.915111
3613, 0, 16, 1308337, 1176051,0,8196.973011
3614, 0, 16, 1304743, 1179129,0,8200.971311
3615, 0, 16, 1307149, 1175422,0,8204.799311
3616, 0, 16, 1305760, 1180207,0,8208.80771
3617, 0, 16, 1305514, 1174562,0,8212.84621
3618, 0, 16, 1306592, 1181107,0,8216.87231
3619, 0, 16, 1304731, 1174115,0,8220.879809
3620, 0, 16, 1307684, 1182045,0,8225.010209
3621, 0, 16, 1303588, 1173712,0,8228.816209
3622, 0, 16, 1308675, 1181584,0,8232.876009
3623, 0, 16, 1302983, 1173683,0,8236.820608
3624, 0, 16, 1309893, 1181575,0,8240.873208
3625, 0, 16, 1302392, 1173650,0,8244.950208
3626, 0, 16, 1310333, 1180911,0,8248.927307
3627, 0, 16, 1302138, 1174065,0,8252.981607
3628, 0, 16, 1310437, 1180842,0,8256.970607
3629, 0, 16, 1301813, 1174755,0,8260.877007
3630, 0, 16, 1309810, 1180390,0,8264.895206
3631, 0, 16, 1302158, 1175595,0,8268.874206
3632, 0, 16, 1309804, 1180052,0,8275.311706
3633, 0, 16, 1302470, 1176604,31,8280.564105
3634, 0, 16, 1309230, 1178421,0,8282.882005
3635, 0, 16, 1303151, 1177443,0,8285.634305
3636, 0, 16, 1309095, 1177408,0,8292.483505
3637, 0, 16, 1304112, 1178294,31,8297.978304
3638, 0, 16, 1308214, 1176043,0,8298.203904
3639, 0, 16, 1304984, 1179185,31,8304.850404
3640, 0, 16, 1307125, 1175233,0,8307.248904
3641, 0, 16, 1305857, 1180339,31,8313.672003
3642, 0, 16, 1305483, 1174575,0,8315.162003
3643, 0, 16, 1306738, 1181134,31,8322.332103
3644, 0, 16, 1304543, 1174124,0,8324.797502
3645, 0, 16, 1307834, 1182048,62,8335.812802
3646, 0, 16, 1303523, 1173674,217,8359.4119
3647, 0, 16, 1308639, 1181668,248,8368.322499
3648, 0, 16, 1302931, 1173645,279,8373.541799
3649, 0, 16, 1309998, 1181476,248,8374.518599
3650, 0, 16, 1302263, 1173715,248,8378.990799
3651, 0, 16, 1310418, 1180903,217,8380.048999
3652, 0, 16, 1302181, 1174230,217,8381.409398
3653, 0, 16, 1310359, 1180937,186,8382.389398
3654, 0, 16, 1301869, 1174928,217,8389.793598
3655, 0, 16, 1309755, 1180291,186,8391.137298
3656, 0, 16, 1302019, 1175683,155,8392.289098
3657, 0, 16, 1309762, 1179905,155,8393.386498
3658, 0, 16, 1302575, 1176660,124,8394.598998
3659, 0, 16, 1309024, 1178284,93,8395.632498
3660, 0, 16, 1303170, 1177464,93,8396.596597
3661, 0, 16, 1309061, 1177187,62,8397.800797
3662, 0, 16, 1304020, 1178406,31,8398.853997
3663, 0, 16, 1308089, 1175918,31,8403.605297
3664, 0, 16, 1305049, 1179175,31,8404.817197
3665, 0, 16, 1306882, 1175270,0,8407.579597
3666, 0, 16, 1305849, 1180382,0,8410.686896
3667, 0, 16, 1305408, 1174404,217,8443.175294
3668, 0, 16, 1306736, 1181229,186,8444.226194
3669, 0, 16, 1304511, 1174107,186,8446.319094
3670, 0, 16, 1307938, 1182036,217,8453.949394
3671, 0, 16, 1303426, 1173680,186,8455.050193
3672, 0, 16, 1308714, 1181562,186,8457.855993
3673, 0, 16, 1302909, 1173553,155,8458.976793
3674, 0, 16, 1309947, 1181489,155,8462.622893
3675, 0, 16, 1302297, 1173767,124,8463.767293
3676, 0, 16, 1310462, 1180785,124,8465.995093
3677, 0, 16, 1302115, 1174238,93,8467.205793
3678, 0, 16, 1310320, 1180883,62,8468.198593
3679, 0, 16, 1301956, 1174814,93,8473.865892
3680, 0, 16, 1309745, 1180293,155,8487.054691
3681, 0, 16, 1302096, 1175750,186,8493.231491
3682, 0, 16, 1309784, 1179747,155,8494.506091
3683, 0, 16, 1302508, 1176681,124,8495.571891
3684, 0, 16, 1309071, 1178215,124,8497.237791
3685, 0, 16, 1303311, 1177393,124,8502.01809
3686, 0, 16, 1308938, 1177128,93,8503.43759
3687, 0, 16, 1304060, 1178464,248,8526.985189
3688, 0, 16, 1308057, 1175775,248,8529.592688
3689, 0, 16, 1305031, 1179240,248,8536.210988
3690, 0, 16, 1306710, 1175192,248,8538.648788
3691, 0, 16, 1305997, 1180414,403,8562.912686
3692, 0, 16, 1305241, 1174358,372,8564.112286
3693, 0, 16, 1306683, 1181276,372,8565.197286
3694, 0, 16, 1304422, 1174000,341,8566.329886
3695, 0, 16, 1307987, 1182035,341,8569.337786
3696, 0, 16, 1303238, 1173659,310,8569.545386
3697, 0, 16, 1308873, 1181545,279,8569.747386
3698, 0, 16, 1302816, 1173545,248,8569.980786
3699, 0, 16, 1309996, 1181482,217,8570.227186
3700, 0, 16, 1302304, 1173778,186,8570.472986
3701, 0, 16, 1310454, 1180788,155,8570.719986
3702, 0, 16, 1301875, 1174272,124,8571.175486
3703, 0, 16, 1310299, 1180774,93,8571.432186
3704, 0, 16, 1301881, 1174896,62,8571.652986
3705, 0, 16, 1309647, 1180269,31,8571.873386
3706, 0, 16, 1302127, 1175783,0,8572.093386
3707, 0, 16, 1309698, 1179646,0,8572.885285
3708, 0, 16, 1302403, 1176784,0,8576.718985
3709, 0, 16, 1309041, 1178004,0,8580.687285
3710, 0, 16, 1303296, 1177425,0,8584.907085
3711, 0, 16, 1308779, 1177056,0,8588.711484
3712, 0, 16, 1304247, 1178539,0,8592.699384
3713, 0, 16, 1307904, 1175637,0,8596.701484
3714, 0, 16, 1305074, 1179367,0,8600.667984
3715, 0, 16, 1306702, 1175134,0,8604.638583
3716, 0, 16, 1306056, 1180505,0,8608.654283
3717, 0, 16, 1305053, 1174353,0,8612.730683
3718, 0, 16, 1306865, 1181432,0,8616.834382
3719, 0, 16, 1304345, 1173989,0,8620.875582
3720, 0, 16, 1307973, 1182085,0,8624.876282
3721, 0, 16, 1303310, 1173664,0,8628.874382
3722, 0, 16, 1308959, 1181408,0,8632.782081
3723, 0, 16, 1302788, 1173628,0,8636.894681
3724, 0, 16, 1310139, 1181482,0,8640.819281
3725, 0, 16, 1302289, 1173637,0,8644.891681
3726, 0, 16, 1310413, 1180752,0,8648.79448
3727, 0, 16, 1302043, 1174279,0,8652.89908
3728, 0, 12, 1375294, 1180640,0,8656.83628
3729, 0, 12, 1465765, 1310248,0,8660.849679
3730, 0, 12, 1479282, 1337514,0,8664.727379
3731, 0, 12, 1471951, 1334251,0,8668.731479
3732, 0, 12, 1479662, 1338103,0,8672.692479
3733, 0, 12, 1472372, 1335363,0,8676.705178
3734, 0, 12, 1479009, 1336332,0,8680.708278
3735, 0, 12, 1473114, 1336127,0,8684.688578
3736, 0, 12, 1478787, 1335405,0,8688.712278
3737, 0, 12, 1474145, 1337012,0,8692.727377
3738, 0, 12, 1477592, 1334012,0,8696.869977
3739, 0, 12, 1474998, 1337993,0,8700.897577
3740, 0, 12, 1476380, 1333370,0,8704.694476
3741, 0, 12, 1475919, 1339218,0,8708.693276
3742, 0, 12, 1474762, 1332665,0,8712.727976
3743, 0, 12, 1476827, 1339947,0,8716.774876
3744, 0, 12, 1473895, 1332284,0,8720.914975
3745, 0, 12, 1477999, 1340622,0,8724.881475
3746, 0, 12, 1472965, 1331881,0,8728.886575
3747, 0, 12, 1478875, 1339988,0,8732.849275
3748, 0, 12, 1472375, 1331965,0,8736.809074
3749, 0, 12, 1480180, 1339909,0,8740.892474
3750, 0, 12, 1471725, 1332042,0,8744.936674
3751, 0, 12, 1480257, 1339218,0,8748.819673
3752, 0, 12, 1471586, 1332588,0,8752.925673
3753, 0, 12, 1480077, 1339219,0,8756.897073
3754, 0, 12, 1471460, 1333442,0,8760.938573
3755, 0, 12, 1479506, 1338604,0,8764.871472
3756, 0, 12, 1471753, 1334334,0,8768.812472
3757, 0, 12, 1479511, 1337903,0,8772.913672
3758, 0, 12, 1472382, 1335241,0,8776.860972
3759, 0, 12, 1478811, 1336231,0,8780.802171
3760, 0, 12, 1473080, 1336092,0,8784.805771
3761, 0, 12, 1478668, 1335230,0,8788.805371
3762, 0, 12, 1473978, 1337133,0,8792.80217
3763, 0, 12, 1477387, 1333895,0,8796.87097
3764, 0, 12, 1474937, 1337859,0,8800.73757
3765, 0, 12, 1476067, 1333237,0,8804.87097
3766, 0, 12, 1475916, 1339278,0,8808.895469
3767, 0, 12, 1474665, 1332479,0,8812.836269
3768, 0, 12, 1476724, 1340005,0,8816.770869
3769, 0, 12, 1473735, 1332186,0,8820.817269
3770, 0, 12, 1477971, 1340405,0,8824.923868
3771, 0, 12, 1472688, 1331739,0,8828.771168
3772, 0, 12, 1478848, 1339912,0,8834.566268
3773, 0, 12, 1472223, 1331763,31,8842.363767
3774, 0, 12, 1480071, 1339831,0,8844.187167
3775, 0, 12, 1471693, 1332032,0,8845.359067
3776, 0, 12, 1480252, 1339113,0,8851.155667
3777, 0, 12, 1471469, 1332575,31,8858.640366
3778, 0, 12, 1480001, 1339117,0,8858.866166
3779, 0, 12, 1471436, 1333295,0,8860.944266
3780, 0, 12, 1479371, 1338481,0,8865.709766
3781, 0, 12, 1471733, 1334368,31,8875.027465
3782, 0, 12, 1479465, 1337602,31,8877.166365
3783, 0, 12, 1472250, 1335236,0,8880.557865
3784, 0, 12, 1478688, 1336140,31,8886.529364
3785, 0, 12, 1473120, 1336006,31,8890.981864
3786, 0, 12, 1478560, 1335047,186,8913.229162
3787, 0, 12, 1473999, 1337160,279,8930.464261
3788, 0, 12, 1477351, 1333717,279,8933.559261
3789, 0, 12, 1475049, 1338008,310,8941.48396
3790, 0, 12, 1475972, 1333226,279,8942.65916
3791, 0, 12, 1476011, 1339193,248,8943.88706
3792, 0, 12, 1474512, 1332415,248,8944.92876
3793, 0, 12, 1476808, 1340187,217,8945.97606
3794, 0, 12, 1473774, 1332079,186,8946.74206
3795, 0, 12, 1478162, 1340447,155,8947.67136
3796, 0, 12, 1472628, 1331821,186,8956.162759
3797, 0, 12, 1478971, 1339793,186,8957.327959
3798, 0, 12, 1472201, 1331833,155,8958.509359
3799, 0, 12, 1480102, 1339873,124,8959.467459
3800, 0, 12, 1471693, 1332071,186,8970.493958
3801, 0, 12, 1480169, 1339088,217,8980.395558
3802, 0, 12, 1471410, 1332703,310,8995.019257
3803, 0, 12, 1480065, 1339106,279,8996.173357
3804, 0, 12, 1471489, 1333431,279,8997.327557
3805, 0, 12, 1479275, 1338519,310,9007.211356
3806, 0, 12, 1471803, 1334430,279,9008.303756
3807, 0, 12, 1479373, 1337556,279,9010.842256
3808, 0, 12, 1472247, 1335401,279,9014.046355
3809, 0, 12, 1478711, 1335983,248,9016.221555
3810, 0, 12, 1473195, 1336114,248,9017.075455
3811, 0, 12, 1478399, 1335016,217,9018.179755
3812, 0, 12, 1474229, 1337277,186,9019.310955
3813, 0, 12, 1477149, 1333691,186,9023.646855
3814, 0, 12, 1474956, 1338097,279,9036.927854
3815, 0, 12, 1475926, 1333163,248,9038.108954
3816, 0, 12, 1476008, 1339264,217,9039.228354
3817, 0, 12, 1474246, 1332452,248,9044.858953
3818, 0, 12, 1476917, 1340140,217,9046.045453
3819, 0, 12, 1473655, 1332072,186,9047.115053
3820, 0, 12, 1478077, 1340504,155,9048.091553
3821, 0, 12, 1472680, 1331850,155,9052.374553
3822, 0, 12, 1479052, 1339777,155,9053.836253
3823, 0, 12, 1472043, 1331802,310,9078.096751
3824, 0, 12, 1480199, 1339836,279,9079.095351
3825, 0, 12, 1471662, 1332045,248,9080.262051
3826, 0, 12, 1480043, 1339069,248,9082.386551
3827, 0, 12, 1471487, 1332736,248,9084.587151
3828, 0, 12, 1479993, 1338996,217,9085.693451
3829, 0, 12, 1471330, 1333564,186,9086.74655
3830, 0, 12, 1479321, 1338428,217,9092.83855
3831, 0, 12, 1471811, 1334395,186,9094.34745
3832, 0, 12, 1479243, 1337507,155,9095.90705
3833, 0, 12, 1472360, 1335354,341,9120.737748
3834, 0, 12, 1478646, 1335735,310,9122.530348
3835, 0, 12, 1473115, 1336150,279,9123.901448
3836, 0, 12, 1478389, 1334822,279,9126.981748
3837, 0, 12, 1474252, 1337221,248,9127.206548
3838, 0, 12, 1477002, 1333655,217,9127.428948
3839, 0, 12, 1475103, 1338172,186,9127.651248
3840, 0, 12, 1475811, 1333017,155,9127.872548
3841, 0, 12, 1476046, 1339398,124,9128.093448
3842, 0, 12, 1474270, 1332366,93,9128.328448
3843, 0, 12, 1476980, 1339996,93,9128.696648
3844, 0, 12, 1473442, 1332036,62,9128.921048
3845, 0, 12, 1478160, 1340321,31,9129.154948
3846, 0, 12, 1472550, 1331625,0,9129.376548
3847, 0, 12, 1478963, 1339682,0,9132.830247
3848, 0, 12, 1472008, 1331821,0,9136.761047
3849, 0, 12, 1480246, 1339594,0,9140.997547
3850, 0, 12, 1471505, 1332028,0,9144.899647
3851, 0, 12, 1479988, 1338967,0,9148.751946
3852, 0, 12, 1471364, 1332606,0,9152.764446
3853, 0, 12, 1479809, 1338913,0,9156.767546
3854, 0, 12, 1471342, 1333512,0,9160.758245
3855, 0, 12, 1479165, 1338202,0,9164.752645
3856, 0, 12, 1471685, 1334432,0,9168.760545
3857, 0, 12, 1479171, 1337325,0,9172.776945
3858, 0, 12, 1472381, 1335314,0,9176.750044
3859, 0, 12, 1478507, 1335672,0,9180.753044
3860, 0, 12, 1473140, 1336210,0,9184.770144
3861, 0, 12, 1478284, 1334644,0,9188.791244
3862, 0, 12, 1474154, 1337303,0,9192.936343
3863, 0, 12, 1476750, 1333486,0,9196.834243
3864, 0, 12, 1475089, 1338000,0,9201.132943
3865, 0, 12, 1475565, 1332902,0,9205.120842
3866, 0, 12, 1476033, 1339455,0,9208.899542
3867, 0, 12, 1474080, 1332143,0,9212.900342
3868, 0, 12, 1476867, 1340098,0,9216.895042
3869, 0, 12, 1473281, 1331974,0,9220.852941
3870, 0, 12, 1478151, 1340172,0,9224.710141
3871, 0, 12, 1472358, 1331620,0,9228.748941
3872, 0, 12, 1479093, 1339691,0,9232.761541
3873, 0, 12, 1471954, 1331766,0,9236.74154
3874, 0, 12, 1480082, 1339633,0,9240.74084
3875, 0, 12, 1471397, 1332089,0,9244.74914
3876, 0, 12, 1479931, 1338903,0,9248.723239
3877, 0, 12, 1471277, 1332694,0,9252.749139
3878, 0, 12, 1479784, 1338889,0,9256.811839
3879, 0, 12, 1471410, 1333537,0,9260.822739
3880, 0, 12, 1479076, 1338167,0,9264.831738
3881, 0, 12, 1471701, 1334498,0,9268.776638
3882, 0, 12, 1479132, 1337121,0,9272.768938
3883, 0, 12, 1472336, 1335377,0,9276.803038
3884, 0, 12, 1478478, 1335559,0,9280.787137
3885, 0, 12, 1473242, 1336169,0,9284.926537
3886, 0, 12, 1478171, 1334585,0,9288.922537
3887, 0, 12, 1474179, 1337375,0,9292.740036
3888, 0, 12, 1476694, 1333344,0,9296.963036
3889, 0, 12, 1475128, 1338177,0,9300.944036
3890, 0, 12, 1475454, 1332887,0,9304.886536
3891, 0, 12, 1476137, 1339395,0,9308.924135
3892, 0, 12, 1473965, 1332193,0,9312.814135
3893, 0, 12, 1476919, 1340135,0,9316.760835
3894, 0, 12, 1473292, 1331844,0,9320.798035
3895, 0, 12, 1478249, 1340143,0,9324.834034
3896, 0, 12, 1472249, 1331632,0,9328.801834
3897, 0, 12, 1479151, 1339446,0,9332.821034
3898, 0, 12, 1471908, 1331730,0,9336.792533
3899, 0, 12, 1480156, 1339626,0,9340.817233
3900, 0, 12, 1471472, 1332043,0,9344.852933
3901, 0, 12, 1479883, 1338915,0,9348.757433
3902, 0, 12, 1471279, 1332807,0,9352.800032
3903, 0, 12, 1479844, 1338892,0,9356.771132
3904, 0, 12, 1471371, 1333621,0,9360.891032
3905, 0, 12, 1478979, 1338160,0,9364.764532
3906, 0, 12, 1471773, 1334512,0,9368.878731
3907, 0, 12, 1479147, 1336994,0,9372.853431
3908, 0, 12, 1472341, 1335486,0,9376.887831
3909, 0, 12, 1478515, 1335423,0,9380.84743
3910, 0, 12, 1473344, 1336257,0,9384.85223
3911, 0, 12, 1478063, 1334554,0,9388.79903
3912, 0, 12, 1474318, 1337354,0,9393.07393
3913, 0, 12, 1476634, 1333337,0,9398.321529
3914, 0, 12, 1475087, 1338335,0,9403.506129
3915, 0, 12, 1475402, 1332806,0,9405.720329
3916, 0, 12, 1476277, 1339523,0,9412.203328
3917, 0, 12, 1473829, 1332161,0,9415.087428
3918, 0, 12, 1477101, 1340187,0,9419.927628
3919, 0, 12, 1473250, 1331902,0,9421.464728
3920, 0, 12, 1478266, 1340277,0,9426.328227
3921, 0, 12, 1472389, 1331729,0,9432.104427
3922, 0, 12, 1479345, 1339604,0,9435.477127
3923, 0, 12, 1471828, 1331868,0,9441.217326
3924, 0, 12, 1480290, 1339707,0,9444.278826
3925, 0, 12, 1471386, 1332085,31,9449.956826
3926, 0, 12, 1479775, 1338986,31,9462.218125
3927, 0, 12, 1471374, 1332872,186,9477.459624
3928, 0, 12, 1479815, 1338793,155,9478.537724
3929, 0, 12, 1471297, 1333756,124,9480.531224
3930, 0, 12, 1479108, 1338158,124,9482.876724
3931, 0, 12, 1471849, 1334596,93,9483.616423
3932, 0, 12, 1479075, 1336972,93,9485.567023
3933, 0, 12, 1472505, 1335545,62,9486.423623
3934, 0, 12, 1478439, 1335291,31,9488.319423
3935, 0, 12, 1473328, 1336386,31,9489.266223
3936, 0, 12, 1478057, 1334504,31,9494.949923
3937, 0, 12, 1474394, 1337451,0,9495.751623
3938, 0, 12, 1476419, 1333395,0,9497.265223
3939, 0, 12, 1475293, 1338377,31,9505.492722
3940, 0, 12, 1475355, 1332725,0,9508.385722
3941, 0, 12, 1476231, 1339614,0,9510.449222
3942, 0, 12, 1473883, 1332182,186,9537.54722
3943, 0, 12, 1477150, 1340106,155,9538.64272
3944, 0, 12, 1473117, 1331933,124,9539.98492
3945, 0, 12, 1478407, 1340241,186,9549.518919
3946, 0, 12, 1472326, 1331617,155,9550.649819
3947, 0, 12, 1479296, 1339650,155,9553.878819
3948, 0, 12, 1471919, 1331913,217,9564.727718
3949, 0, 12, 1480316, 1339534,186,9566.852218
3950, 0, 12, 1471389, 1332233,155,9567.899818
3951, 0, 12, 1479881, 1338935,186,9575.152117
3952, 0, 12, 1471419, 1332799,155,9576.290917
3953, 0, 12, 1479687, 1338851,155,9577.548617
3954, 0, 12, 1471419, 1333804,124,9578.752617
3955, 0, 12, 1479106, 1337916,93,9580.165717
3956, 0, 12, 1471886, 1334751,93,9583.523517
3957, 0, 12, 1479093, 1336958,93,9584.821017
3958, 0, 12, 1472613, 1335559,62,9587.112616
3959, 0, 12, 1478396, 1335289,31,9588.203016
3960, 0, 12, 1473444, 1336487,31,9589.714316
3961, 0, 12, 1478054, 1334355,0,9591.156616
3962, 0, 12, 1474435, 1337619,155,9614.535415
3963, 0, 12, 1476447, 1333336,155,9616.928314
3964, 0, 12, 1475309, 1338400,124,9618.069714
3965, 0, 12, 1475133, 1332739,93,9619.164914
3966, 0, 12, 1476363, 1339747,124,9624.573414
3967, 0, 12, 1473836, 1332083,124,9630.495613
3968, 0, 12, 1477178, 1340277,124,9634.957213
3969, 0, 12, 1473075, 1331854,248,9654.688412
3970, 0, 12, 1478518, 1340157,217,9655.952712
3971, 0, 12, 1472093, 1331678,216,9656.737412
3972, 0, 12, 1479360, 1339597,185,9657.790212
3973, 0, 12, 1471871, 1331845,154,9658.859712
3974, 0, 12, 1480195, 1339624,153,9661.640911
3975, 0, 12, 1471371, 1332289,122,9661.867511
3976, 0, 12, 1479894, 1338854,91,9662.090611
3977, 0, 12, 1471246, 1332950,60,9662.312011
3978, 0, 8, 1568516, 1338866,30,9662.557411
3979, 0, 8, 1695361, 1516173,0,9662.783111
3980, 0, 8, 1710639, 1550061,0,9664.812911
3981, 0, 8, 1703653, 1548536,0,9668.743111
3982, 0, 8, 1711194, 1550549,0,9672.695611
3983, 0, 8, 1704417, 1549521,0,9676.84831
3984, 0, 8, 1710424, 1548950,0,9680.77071
3985, 0, 8, 1705382, 1550331,0,9684.69561
3986, 0, 8, 1709871, 1548056,0,9688.69881
3987, 0, 8, 1706405, 1551603,0,9692.699309
3988, 0, 8, 1708179, 1546801,0,9696.723609
3989, 0, 8, 1707289, 1552457,0,9700.636009
3990, 0, 8, 1706879, 1546330,0,9704.864308
3991, 0, 8, 1708444, 1553671,0,9708.711808
3992, 0, 8, 1705510, 1545729,0,9712.701308
3993, 0, 8, 1709276, 1554231,0,9716.761208
3994, 0, 8, 1704812, 1545419,0,9720.779407
3995, 0, 8, 1710659, 1554130,0,9724.835907
3996, 0, 8, 1703859, 1545253,0,9728.765507
3997, 0, 8, 1711636, 1553357,0,9732.842307
3998, 0, 8, 1703508, 1545390,0,9736.810106
3999, 0, 8, 1712344, 1553551,0,9740.830306
4000, 0, 8, 1703091, 1545909,0,9744.762906
4001, 0, 8, 1711881, 1552748,0,9748.808105
4002, 0, 8, 1702973, 1546704,0,9752.816605
4003, 0, 8, 1711786, 1552616,0,9756.759305
4004, 0, 8, 1703178, 1547577,0,9760.837505
4005, 0, 8, 1711005, 1551736,0,9764.789604
4006, 0, 8, 1703698, 1548496,0,9768.760304
4007, 0, 8, 1711069, 1550427,0,9772.723504
4008, 0, 8, 1704426, 1549610,0,9776.917204
4009, 0, 8, 1710385, 1548786,0,9780.872803
4010, 0, 8, 1705450, 1550408,0,9784.828803
4011, 0, 8, 1709742, 1548025,0,9789.040303
4012, 0, 8, 1706500, 1551559,0,9792.921702
4013, 0, 8, 1708050, 1546738,0,9796.788202
4014, 0, 8, 1707235, 1552567,0,9800.828702
4015, 0, 8, 1706868, 1546243,0,9804.847302
4016, 0, 8, 1708520, 1553770,0,9808.838001
4017, 0, 8, 1705310, 1545700,0,9812.816101
4018, 0, 8, 1709408, 1554197,0,9816.791601
4019, 0, 8, 1704735, 1545388,0,9820.858801
4020, 0, 8, 1710709, 1554169,0,9824.7666
4021, 0, 8, 1703948, 1545339,0,9828.8594
4022, 0, 8, 1711737, 1553415,0,9832.8157
4023, 0, 8, 1703422, 1545550,0,9836.697799
4024, 0, 8, 1712494, 1553530,0,9840.864899
4025, 0, 8, 1703082, 1545953,0,9844.840199
4026, 0, 8, 1711746, 1552825,0,9848.833899
4027, 0, 8, 1703067, 1546828,0,9852.771998
4028, 0, 8, 1711785, 1552647,0,9856.797798
4029, 0, 8, 1703062, 1547784,0,9860.875898
4030, 0, 8, 1711035, 1551601,0,9864.823398
4031, 0, 8, 1703733, 1548617,0,9868.705297
4032, 0, 8, 1710928, 1550416,0,9872.840697
4033, 0, 8, 1704554, 1549690,0,9876.873997
4034, 0, 8, 1710330, 1548674,0,9880.804896
4035, 0, 8, 1705375, 1550480,0,9884.908096
4036, 0, 8, 1709656, 1547866,0,9888.852896
4037, 0, 8, 1706533, 1551626,0,9892.913296
4038, 0, 8, 1707802, 1546754,0,9896.848695
4039, 0, 8, 1707413, 1552661,0,9900.877495
4040, 0, 8, 1706806, 1546168,0,9904.852595
4041, 0, 8, 1708458, 1553933,0,9908.840895
4042, 0, 8, 1705337, 1545671,0,9912.841594
4043, 0, 8, 1709513, 1554095,0,9916.790994
4044, 0, 8, 1704655, 1545495,0,9920.882294
4045, 0, 8, 1710833, 1554132,0,9924.849693
4046, 0, 8, 1703854, 1545223,0,9928.842493
4047, 0, 8, 1711684, 1553444,0,9932.841293
4048, 0, 8, 1703393, 1545567,0,9936.775793
4049, 0, 8, 1712402, 1553329,0,9940.777992
4050, 0, 8, 1702931, 1545989,0,9944.857592
4051, 0, 8, 1711678, 1552698,0,9948.841492
4052, 0, 8, 1702951, 1546636,0,9955.489591
4053, 0, 8, 1711685, 1552591,30,9961.065091
4054, 0, 8, 1703150, 1547741,0,9964.412191
4055, 0, 8, 1710981, 1551366,0,9965.281891
4056, 0, 8, 1703690, 1548737,30,9973.93779
4057, 0, 8, 1710907, 1550232,30,9979.51789
4058, 0, 8, 1704571, 1549544,0,9979.74469
4059, 0, 8, 1710162, 1548629,0,9981.28159
4060, 0, 8, 1705443, 1550486,0,9985.508689
4061, 0, 8, 1709530, 1547664,0,9991.065889
4062, 0, 8, 1706474, 1551747,0,9995.796689
4063, 0, 8, 1707673, 1546628,0,9997.267889
4064, 0, 8, 1707348, 1552576,30,10005.080988
4065, 0, 8, 1706508, 1546131,30,10010.302088
4066, 0, 8, 1708497, 1553860,120,10024.555087
4067, 0, 8, 1705187, 1545479,210,10040.856186
4068, 0, 8, 1709430, 1554161,180,10042.731485
4069, 0, 8, 1704535, 1545362,150,10043.551485
4070, 0, 8, 1710817, 1553990,150,10045.735285
4071, 0, 8, 1703660, 1545237,120,10046.616585
4072, 0, 8, 1711671, 1553355,150,10052.629185
4073, 0, 8, 1703321, 1545474,120,10053.611885
4074, 0, 8, 1712274, 1553377,90,10054.615685
4075, 0, 8, 1702863, 1546018,60,10055.468685
4076, 0, 8, 1711679, 1552627,60,10056.539984
4077, 0, 8, 1702822, 1546744,30,10057.475384
4078, 0, 8, 1711543, 1552492,0,10058.638984
4079, 0, 8, 1703118, 1547702,30,10064.665784
4080, 0, 8, 1710758, 1551326,0,10065.525484
4081, 0, 8, 1703646, 1548678,30,10072.571583
4082, 0, 8, 1710824, 1550022,30,10079.123583
4083, 0, 8, 1704434, 1549613,120,10094.211682
4084, 0, 8, 1710128, 1548532,120,10097.506182
4085, 0, 8, 1705456, 1550461,90,10098.652082
4086, 0, 8, 1709304, 1547686,60,10099.874382
4087, 0, 8, 1706496, 1551775,90,10108.217781
4088, 0, 8, 1707617, 1546491,90,10109.360481
4089, 0, 8, 1707384, 1552689,60,10111.680281
4090, 0, 8, 1706446, 1546115,60,10112.571381
4091, 0, 8, 1708575, 1553775,90,10121.08948
4092, 0, 8, 1705032, 1545471,90,10126.52928
4093, 0, 8, 1709374, 1554099,90,10128.63538
4094, 0, 8, 1704438, 1545266,90,10135.084779
4095, 0, 8, 1710769, 1553911,60,10136.117979
4096, 0, 8, 1703556, 1545125,60,10137.196379
4097, 0, 8, 1711639, 1553115,30,10138.418679
4098, 0, 8, 1703123, 1545360,30,10143.356279
4099, 0, 8, 1712134, 1553248,180,10164.785677
4100, 0, 8, 1702838, 1545897,150,10166.952377
4101, 0, 8, 1711586, 1552575,120,10167.954277
4102, 0, 8, 1702800, 1546796,120,10168.971177
4103, 0, 8, 1711575, 1552361,120,10172.662477
4104, 0, 8, 1703060, 1547747,120,10179.704176
4105, 0, 8, 1710699, 1551249,120,10180.862976
4106, 0, 8, 1703736, 1548613,90,10182.325776
4107, 0, 8, 1710759, 1549943,150,10192.868775
4108, 0, 8, 1704468, 1549735,210,10207.324974
4109, 0, 8, 1710087, 1548338,210,10208.935174
4110, 0, 8, 1705561, 1550500,180,10212.241774
4111, 0, 8, 1709203, 1547602,150,10212.476474
4112, 0, 8, 1706542, 1551729,150,10212.774874
4113, 0, 8, 1707506, 1546471,120,10212.991074
4114, 0, 8, 1707333, 1552709,90,10213.230774
4115, 0, 8, 1706370, 1545933,60,10213.446774
4116, 0, 8, 1708629, 1553927,30,10213.662774
4117, 0, 8, 1704922, 1545518,0,10214.015674
4118, 0, 8, 1709515, 1554024,0,10216.745274
4119, 0, 8, 1704352, 1545191,0,10220.640073
4120, 0, 8, 1710764, 1553913,0,10224.650673
4121, 0, 8, 1703551, 1545124,0,10228.814273
4122, 0, 8, 1711708, 1553173,0,10232.687872
4123, 0, 8, 1703097, 1545495,0,10236.691972
4124, 0, 8, 1712221, 1553220,0,10240.669472
4125, 0, 8, 1702830, 1545958,0,10244.676072
4126, 0, 8, 1711484, 1552536,0,10248.688571
4127, 0, 8, 1702853, 1546849,0,10252.647271
4128, 0, 8, 1711509, 1552312,0,10256.685171
4129, 0, 8, 1703014, 1547871,0,10260.687871
4130, 0, 8, 1710717, 1551130,0,10264.66677
4131, 0, 8, 1703749, 1548758,0,10268.68707
4132, 0, 8, 1710620, 1549869,0,10272.70247
4133, 0, 8, 1704601, 1549725,0,10276.69357
4134, 0, 8, 1709995, 1548250,0,10280.721469
4135, 0, 8, 1705441, 1550635,0,10284.742869
4136, 0, 8, 1709129, 1547528,0,10288.814369
4137, 0, 8, 1706601, 1551783,0,10292.800468
4138, 0, 8, 1707237, 1546478,0,10296.877268
4139, 0, 8, 1707495, 1552789,0,10300.773568
4140, 0, 8, 1706279, 1545870,0,10304.852468
4141, 0, 8, 1708571, 1553992,0,10308.766167
4142, 0, 8, 1704954, 1545485,0,10312.989467
4143, 0, 8, 1709652, 1554012,0,10316.767067
4144, 0, 8, 1704184, 1545258,0,10320.696767
4145, 0, 8, 1710935, 1553884,0,10324.773566
4146, 0, 8, 1703533, 1545088,0,10328.789966
4147, 0, 8, 1711741, 1553178,0,10332.733066
4148, 0, 8, 1703163, 1545541,0,10336.609665
4149, 0, 8, 1712155, 1553161,0,10340.593065
4150, 0, 8, 1702706, 1546020,0,10344.638365
4151, 0, 8, 1711459, 1552525,0,10348.600065
4152, 0, 8, 1702791, 1546802,0,10352.617664
4153, 0, 8, 1711388, 1552304,0,10356.618864
4154, 0, 8, 1703109, 1547847,0,10360.708064
4155, 0, 8, 1710720, 1550878,0,10364.595364
4156, 0, 8, 1703684, 1548747,0,10368.616463
4157, 0, 8, 1710682, 1549685,0,10372.564363
4158, 0, 8, 1704651, 1549728,0,10376.881663
4159, 0, 8, 1709918, 1548211,0,10380.824062
4160, 0, 8, 1705602, 1550689,0,10384.794066
4161, 0, 8, 1709024, 1547285,0,10388.80397
4162, 0, 8, 1706607, 1551926,0,10392.829573
4163, 0, 8, 1707214, 1546434,0,10396.894777
4164, 0, 8, 1707523, 1552749,0,10400.786181
4165, 0, 8, 1706153, 1545934,0,10404.789784
4166, 0, 8, 1708743, 1554038,0,10408.695188
4167, 0, 8, 1704863, 1545270,0,10412.914892
4168, 0, 8, 1709566, 1554030,0,10416.876295
4169, 0, 8, 1704171, 1545240,0,10420.767599
4170, 0, 8, 1710964, 1553749,0,10424.801303
4171, 0, 8, 1703404, 1545182,0,10428.842006
4172, 0, 8, 1711818, 1553222,0,10432.87481
4173, 0, 8, 1703178, 1545482,0,10436.849213
4174, 0, 8, 1712114, 1553207,0,10440.803017
4175, 0, 8, 1702803, 1546091,0,10444.859221
4176, 0, 8, 1711503, 1552443,0,10448.849024
4177, 0, 8, 1702816, 1546926,0,10452.861828
4178, 0, 8, 1711386, 1552253,0,10456.781732
4179, 0, 8, 1703140, 1547893,0,10460.734335
4180, 0, 8, 1710667, 1550966,0,10464.858239
4181, 0, 8, 1703794, 1548933,0,10468.786543
4182, 0, 8, 1710653, 1549569,0,10472.838746
4183, 0, 8, 1704664, 1549851,0,10476.80175
4184, 0, 8, 1709877, 1548163,0,10480.711553
4185, 0, 8, 1705692, 1550614,0,10484.711057
4186, 0, 8, 1708837, 1547345,0,10489.093361
4187, 0, 8, 1706636, 1551978,0,10492.687164
4188, 0, 8, 1707177, 1546311,0,10496.715468
4189, 0, 8, 1707504, 1552898,0,10500.708072
4190, 0, 8, 1706071, 1545898,0,10504.763075
4191, 0, 8, 1708799, 1554004,0,10508.791679
4192, 0, 8, 1704696, 1545376,0,10513.144283
4193, 0, 8, 1709658, 1553994,0,10516.975887
4194, 0, 8, 1704162, 1545155,30,10525.306294
4195, 0, 8, 1710946, 1553800,0,10526.542295
4196, 0, 8, 1703400, 1545177,30,10535.997804
4197, 0, 8, 1711867, 1553126,60,10541.118809
4198, 0, 8, 1703055, 1545590,30,10541.335609
4199, 0, 8, 1712089, 1553180,0,10541.550009
4200, 0, 8, 1702728, 1546051,0,10547.392514
4201, 0, 8, 1711394, 1552465,0,10551.982218
4202, 0, 8, 1702799, 1547012,0,10556.619023
4203, 0, 8, 1711453, 1552159,0,10557.996024
4204, 0, 8, 1703097, 1547987,30,10567.399132
4205, 0, 8, 1710576, 1550836,60,10572.864237
4206, 0, 8, 1703807, 1548754,150,10592.079455
4207, 0, 8, 1710549, 1549562,210,10602.749165
4208, 0, 8, 1704595, 1549836,180,10604.081966
4209, 0, 8, 1709811, 1547977,180,10607.124469
4210, 0, 8, 1705655, 1550749,210,10613.678575
4211, 0, 8, 1708732, 1547299,180,10615.116476
4212, 0, 8, 1706691, 1551970,150,10616.264777
4213, 0, 8, 1706978, 1546280,150,10617.313878
4214, 0, 8, 1707508, 1552915,150,10622.639983
4215, 0, 8, 1705984, 1545738,150,10625.247185
4216, 0, 8, 1708799, 1554060,120,10627.631387
4217, 0, 8, 1704597, 1545269,120,10628.700188
4218, 0, 8, 1709700, 1553770,270,10656.214213
4219, 0, 8, 1704086, 1545169,270,10657.936215
4220, 0, 8, 1710995, 1553812,240,10658.991216
4221, 0, 8, 1703413, 1545091,270,10666.871823
4222, 0, 8, 1711819, 1553014,240,10667.821224
4223, 0, 8, 1702991, 1545554,240,10668.564425
4224, 0, 8, 1712059, 1553037,210,10672.144328
4225, 0, 8, 1702717, 1546145,210,10674.34103
4226, 0, 8, 1711287, 1552498,180,10675.438531
4227, 0, 8, 1702898, 1546982,180,10677.770233
4228, 0, 4, 1831498, 1552176,150,10678.870334
4229, 0, 4, 2007015, 1841912,180,10686.507241
4230, 0, 4, 2024432, 1892373,240,10698.045852
4231, 0, 4, 2018431, 1893297,210,10700.093653
4232, 0, 4, 2024878, 1893878,210,10700.949554
4233, 0, 4, 2019318, 1894559,180,10702.334355
4234, 0, 4, 2024300, 1892225,180,10705.808259
4235, 0, 4, 2020211, 1895553,150,10706.78876
4236, 0, 4, 2023260, 1891477,120,10707.988061
4237, 0, 4, 2021284, 1896848,120,10711.014663
4238, 0, 4, 2021456, 1890518,270,10733.657584
4239, 0, 4, 2022128, 1897863,240,10735.158985
4240, 0, 4, 2020608, 1889998,240,10738.524888
4241, 0, 4, 2023256, 1898993,210,10740.07969
4242, 0, 4, 2019355, 1889526,240,10746.488296
4243, 0, 4, 2024207, 1898642,210,10747.978497
4244, 0, 4, 2018616, 1889347,270,10757.470106
4245, 0, 4, 2025505, 1898559,330,10772.245019
4246, 0, 4, 2018065, 1889326,330,10773.49332
4247, 0, 4, 2026099, 1897766,330,10776.983624
4248, 0, 4, 2017713, 1889862,300,10777.187024
4249, 0, 4, 2026382, 1897743,270,10777.383624
4250, 0, 4, 2017321, 1890546,240,10777.606824
4251, 0, 4, 2025776, 1897124,210,10777.847124
4252, 0, 4, 2017548, 1891427,180,10778.088425
4253, 0, 4, 2025612, 1896694,150,10778.328625
4254, 0, 4, 2017844, 1892513,120,10778.769725
4255, 0, 4, 2024959, 1894963,90,10779.034225
4256, 0, 4, 2018426, 1893465,60,10779.250526
4257, 0, 4, 2024984, 1893797,30,10779.466526
4258, 0, 4, 2019400, 1894513,0,10779.681126
4259, 0, 4, 2024130, 1892185,0,10780.795527
4260, 0, 4, 2020329, 1895538,0,10784.653831
4261, 0, 4, 2023118, 1891282,0,10788.667534
4262, 0, 4, 2021184, 1896868,0,10793.317938
4263, 0, 4, 2021436, 1890380,0,10796.674441
4264, 0, 4, 2022120, 1897739,0,10800.692145
4265, 0, 4, 2020388, 1889838,0,10804.626749
4266, 0, 4, 2023289, 1898899,0,10808.675052
4267, 0, 4, 2019231, 1889316,0,10812.675356
4268, 0, 4, 2024176, 1898563,0,10816.65686
4269, 0, 4, 2018673, 1889276,0,10820.669463
4270, 0, 4, 2025550, 1898393,0,10824.866167
4271, 0, 4, 2017910, 1889331,0,10828.786371
4272, 0, 4, 2026212, 1897709,0,10832.772774
4273, 0, 4, 2017682, 1889711,0,10836.843878
4274, 0, 4, 2026300, 1897708,0,10840.783582
4275, 0, 4, 2017371, 1890524,0,10844.794385
