ppg_us,ppg_agc_stable,ppg_led_drive_levels,ppg1,ppg2,ppg_in_waiting,elapsed_time_ms
32481, 0, 120, 364772, 77555,0,0.3706
32482, 0, 120, 363869, 76073,0,4.413703
32483, 0, 120, 365177, 77188,0,8.294105
32484, 0, 120, 363791, 76115,0,12.464707
32485, 0, 120, 365341, 77052,0,16.374409
32486, 0, 120, 363935, 75922,0,20.419312
32487, 0, 120, 365050, 77076,0,24.583414
32488, 0, 120, 363771, 76158,0,28.491116
32489, 0, 120, 365049, 76856,0,32.376818
32490, 0, 120, 363726, 76831,0,36.389621
32491, 0, 120, 365028, 76788,0,40.467023
32492, 0, 120, 363823, 76790,0,44.381825
32493, 0, 120, 364651, 76681,0,48.371227
32494, 0, 120, 363958, 76926,0,52.48143
32495, 0, 120, 364687, 76392,0,56.392832
32496, 0, 120, 364310, 76983,0,60.481034
32497, 0, 120, 364512, 76302,0,64.413337
32498, 0, 120, 364706, 76754,0,68.396439
32499, 0, 120, 364244, 76281,0,72.820341
32500, 0, 120, 364601, 77051,0,76.674143
32501, 0, 120, 364217, 75992,0,80.418146
32502, 0, 120, 364539, 77476,0,84.525348
32503, 0, 120, 364105, 76141,0,89.228151
32504, 0, 120, 364746, 77420,0,92.568852
32505, 0, 120, 363809, 76115,0,96.382255
32506, 0, 120, 364809, 77404,0,100.303257
32507, 0, 120, 363895, 76034,0,104.396059
32508, 0, 120, 365110, 77321,0,108.419561
32509, 0, 120, 363868, 76032,0,112.488064
32510, 0, 120, 365356, 77008,0,116.461566
32511, 0, 120, 363795, 76010,0,120.316068
32512, 0, 120, 365176, 77029,0,124.33107
32513, 0, 120, 363862, 76153,0,128.370873
32514, 0, 120, 364929, 76887,0,132.320975
32515, 0, 120, 363833, 76816,0,136.487177
32516, 0, 120, 364980, 76687,0,140.426779
32517, 0, 120, 363714, 76892,0,144.427182
32518, 0, 120, 364793, 76666,0,148.352184
32519, 0, 120, 364068, 76803,0,152.344686
32520, 0, 120, 364588, 76487,0,156.361588
32521, 0, 120, 364447, 76953,0,160.458591
32522, 0, 120, 364572, 76134,0,164.243693
32523, 0, 120, 364708, 76802,0,168.221895
32524, 0, 120, 364347, 76192,0,172.231397
32525, 0, 120, 364642, 76912,0,176.2768
32526, 0, 120, 364173, 76098,0,180.219502
32527, 0, 120, 364585, 77469,0,184.449704
32528, 0, 120, 364069, 76029,0,188.336107
32529, 0, 120, 364670, 77505,0,192.770709
32530, 0, 120, 363778, 76121,0,196.632611
32531, 0, 120, 364887, 77314,0,200.515313
32532, 0, 120, 363820, 76172,0,204.973116
32533, 0, 120, 365137, 77341,0,208.529118
32534, 0, 120, 363905, 75921,0,212.48392
32535, 0, 120, 365300, 77077,0,216.279022
32536, 0, 120, 363809, 76013,0,220.225425
32537, 0, 120, 365173, 76939,0,224.233927
32538, 0, 120, 363751, 76269,0,228.335929
32539, 0, 120, 364839, 76960,0,232.323631
32540, 0, 120, 363828, 76726,0,236.407434
32541, 0, 120, 364857, 76775,0,240.514636
32542, 0, 120, 363655, 76900,0,244.388938
32543, 0, 120, 364787, 76570,0,248.18754
32544, 0, 120, 363936, 76912,0,252.164043
32545, 0, 120, 364531, 76493,0,256.240145
32546, 0, 120, 364586, 76851,0,260.194547
32547, 0, 120, 364497, 76250,0,264.157749
32548, 0, 120, 364609, 76835,0,268.199552
32549, 0, 120, 364480, 76127,0,272.205454
32550, 0, 120, 364619, 76985,0,276.233356
32551, 0, 120, 364073, 76106,0,280.204858
32552, 0, 120, 364650, 77449,0,284.209161
32553, 0, 120, 363984, 76066,0,288.148663
32554, 0, 120, 364591, 77529,0,292.394465
32555, 0, 120, 363942, 76047,0,296.365368
32556, 0, 120, 364766, 77321,0,300.32427
32557, 0, 120, 363823, 76123,0,304.349472
32558, 0, 120, 365291, 77249,0,308.463574
32559, 0, 120, 363825, 75895,0,312.371577
32560, 0, 120, 365215, 77084,0,316.348279
32561, 0, 120, 363993, 75989,0,320.309881
32562, 0, 120, 365130, 76888,0,324.446383
32563, 0, 120, 363749, 76269,0,328.375386
32564, 0, 120, 365056, 76785,0,332.388488
32565, 0, 120, 363739, 76687,0,336.36289
32566, 0, 120, 364868, 76883,0,340.455492
32567, 0, 120, 363843, 76826,0,344.452395
32568, 0, 120, 364766, 76441,0,348.300497
32569, 0, 120, 363978, 76969,0,352.371399
32570, 0, 120, 364712, 76442,0,356.449802
32571, 0, 120, 364439, 76857,0,360.427504
32572, 0, 120, 364400, 76306,0,364.342906
32573, 0, 120, 364712, 76811,0,368.326708
32574, 0, 120, 364376, 76049,0,372.30531
32575, 0, 120, 364513, 77142,0,376.381313
32576, 0, 120, 364204, 76045,0,380.357815
32577, 0, 120, 364590, 77362,0,384.348217
32578, 0, 120, 363979, 76240,0,388.33932
32579, 0, 120, 364727, 77460,0,392.390322
32580, 0, 120, 363860, 75983,0,396.296824
32581, 0, 120, 364738, 77484,0,400.416626
32582, 0, 120, 363859, 76048,0,404.288229
32583, 0, 120, 365233, 77191,0,408.224631
32584, 0, 120, 363730, 76066,0,412.237533
32585, 0, 120, 365261, 77048,0,416.347535
32586, 0, 120, 363933, 75974,0,420.343238
32587, 0, 120, 365007, 77094,0,424.32204
32588, 0, 120, 363803, 76197,0,428.394742
32589, 0, 120, 364975, 76761,0,432.412744
32590, 0, 120, 363657, 76881,0,436.354147
32591, 0, 120, 364898, 76774,0,440.406749
32592, 0, 120, 363830, 76794,0,444.421251
32593, 0, 120, 364646, 76639,0,448.368353
32594, 0, 120, 364055, 76908,0,452.392456
32595, 0, 120, 364673, 76378,0,456.505558
32596, 0, 120, 364436, 76979,0,460.42206
32597, 0, 120, 364444, 76269,0,464.405963
32598, 0, 120, 364714, 76759,0,468.333065
32599, 0, 120, 364275, 76198,0,472.811867
32600, 0, 120, 364668, 77068,0,476.611569
32601, 0, 120, 364157, 75998,0,480.441572
32602, 0, 120, 364433, 77466,0,484.478474
32603, 0, 120, 364008, 76137,0,488.272876
32604, 0, 120, 364785, 77420,0,492.223678
32605, 0, 120, 363747, 76122,0,496.382481
32606, 0, 120, 364899, 77372,0,500.737383
32607, 0, 120, 363967, 75999,0,504.692285
32608, 0, 120, 365132, 77325,0,508.630688
32609, 0, 120, 363870, 76027,0,512.50129
32610, 0, 120, 365333, 76991,0,516.223092
32611, 0, 120, 363799, 76034,0,520.271694
32612, 0, 120, 365141, 77020,0,524.278696
32613, 0, 120, 363847, 76168,0,528.449799
32614, 0, 120, 364900, 76901,0,532.430501
32615, 0, 120, 363814, 76835,0,536.691503
32616, 0, 120, 364934, 76676,0,540.438105
32617, 0, 120, 363754, 76862,0,544.406508
32618, 0, 120, 364711, 76599,0,548.30901
32619, 0, 120, 364059, 76766,0,552.808912
32620, 0, 120, 364638, 76451,0,556.518315
32621, 0, 120, 364472, 76992,0,560.270617
32622, 0, 120, 364530, 76135,0,564.411119
32623, 0, 120, 364644, 76841,0,568.565121
32624, 0, 120, 364277, 76179,0,572.486624
32625, 0, 120, 364663, 76996,0,576.297726
32626, 0, 120, 364107, 76057,0,580.595228
32627, 0, 120, 364527, 77482,0,584.38343
32628, 0, 120, 364053, 76063,0,588.352333
32629, 0, 120, 364657, 77482,0,592.250435
32630, 0, 120, 363770, 76080,0,596.425937
32631, 0, 120, 364940, 77336,0,600.513939
32632, 0, 120, 363862, 76115,0,604.421242
32633, 0, 120, 365146, 77303,0,608.336844
32634, 0, 120, 363870, 75954,0,612.335946
32635, 0, 120, 365227, 77043,0,616.389948
32636, 0, 120, 363812, 76046,0,620.344451
32637, 0, 120, 365174, 76907,0,624.375453
32638, 0, 120, 363738, 76336,0,628.351555
32639, 0, 120, 364865, 76860,0,632.436957
32640, 0, 120, 363815, 76789,0,636.36936
32641, 0, 120, 364853, 76787,0,640.437262
32642, 0, 120, 363680, 76882,0,644.388764
32643, 0, 120, 364740, 76585,0,648.269366
32644, 0, 120, 363996, 76935,0,652.424369
32645, 0, 120, 364462, 76477,0,656.428671
32646, 0, 120, 364550, 76910,0,660.340573
32647, 0, 120, 364448, 76213,0,664.636776
32648, 0, 120, 364583, 76852,0,668.333978
32649, 0, 120, 364403, 76126,0,672.20498
32650, 0, 120, 364556, 77098,0,676.368882
32651, 0, 120, 363995, 76096,0,680.331385
32652, 0, 120, 364628, 77444,0,684.322687
32653, 0, 120, 363964, 76121,0,688.312189
32654, 0, 120, 364618, 77531,0,692.318591
32655, 0, 120, 363954, 76036,0,697.208694
32656, 0, 120, 364868, 77318,0,700.577996
32657, 0, 120, 363725, 76106,0,704.362998
32658, 0, 120, 365350, 77248,0,708.5619
32659, 0, 120, 363776, 75900,0,713.128603
32660, 0, 120, 365197, 77108,0,718.019806
32661, 0, 120, 363929, 75998,0,720.712607
32662, 0, 120, 365086, 76922,0,724.78331
32663, 0, 120, 363756, 76322,0,728.647912
32664, 0, 120, 365032, 76800,0,732.853114
32665, 0, 120, 363777, 76759,0,737.158317
32666, 0, 120, 364785, 76849,0,741.449619
32667, 0, 120, 363837, 76806,0,744.507521
32668, 0, 120, 364676, 76495,0,748.591523
32669, 0, 120, 364006, 76975,0,752.277125
32670, 0, 120, 364693, 76456,0,756.150727
32671, 0, 120, 364472, 76834,0,760.15753
32672, 0, 120, 364396, 76305,0,764.133732
32673, 0, 120, 364753, 76793,0,768.155234
32674, 0, 120, 364374, 76060,0,772.119136
32675, 0, 120, 364530, 77245,0,776.175139
32676, 0, 120, 364099, 76041,0,780.109141
32677, 0, 120, 364541, 77378,0,784.102943
32678, 0, 120, 363924, 76296,0,788.098345
32679, 0, 120, 364711, 77489,0,792.258848
32680, 0, 120, 363811, 75981,0,796.19775
32681, 0, 120, 364777, 77459,0,800.137252
32682, 0, 120, 363827, 76033,0,804.245755
32683, 0, 120, 365214, 77166,0,808.251157
32684, 0, 120, 363719, 76091,0,812.311259
32685, 0, 120, 365306, 76992,0,816.279461
32686, 0, 120, 363908, 75956,0,820.517364
32687, 0, 120, 365056, 77046,0,824.527866
32688, 0, 120, 363796, 76285,0,828.340068
32689, 0, 120, 364909, 76819,0,832.10977
32690, 0, 120, 363673, 76959,0,836.146473
32691, 0, 120, 364849, 76762,0,840.234475
32692, 0, 120, 363770, 76819,0,844.258477
32693, 0, 120, 364590, 76664,0,848.387079
32694, 0, 120, 364149, 76921,0,852.485582
32695, 0, 120, 364631, 76389,0,856.306384
32696, 0, 120, 364391, 77022,0,860.358286
32697, 0, 120, 364476, 76229,0,864.362288
32698, 0, 120, 364686, 76769,0,868.332391
32699, 0, 120, 364215, 76184,0,872.918193
32700, 0, 120, 364643, 77137,0,876.513195
32701, 0, 120, 364138, 75964,0,880.312897
32702, 0, 120, 364432, 77583,0,884.245
32703, 0, 120, 364018, 76153,0,888.196202
32704, 0, 120, 364721, 77397,0,892.245104
32705, 0, 120, 363772, 76099,0,896.416407
32706, 0, 120, 364879, 77379,0,900.479309
32707, 0, 120, 363838, 75966,0,904.409311
32708, 0, 120, 365140, 77274,0,908.486013
32709, 0, 120, 363828, 76035,0,912.447516
32710, 0, 120, 365280, 76978,0,916.224918
32711, 0, 120, 363801, 76052,0,920.33192
32712, 0, 120, 365107, 77031,0,924.279122
32713, 0, 120, 363794, 76248,0,928.433325
32714, 0, 120, 364862, 76882,0,932.270227
32715, 0, 120, 363764, 76887,0,936.457529
32716, 0, 120, 364918, 76665,0,940.323831
32717, 0, 120, 363718, 76859,0,944.263734
32718, 0, 120, 364718, 76601,0,948.323436
32719, 0, 120, 364124, 76821,0,952.321138
32720, 0, 120, 364562, 76407,0,956.439041
32721, 0, 120, 364514, 76990,0,960.347843
32722, 0, 120, 364507, 76101,0,964.413645
32723, 0, 120, 364666, 76841,0,968.411247
32724, 0, 120, 364293, 76159,0,972.42495
32725, 0, 120, 364590, 77066,0,976.328052
32726, 0, 120, 364099, 76032,0,980.260854
32727, 0, 120, 364474, 77581,0,984.276256
32728, 0, 120, 364034, 76023,0,988.166558
32729, 0, 120, 364624, 77468,0,992.382861
32730, 0, 120, 363807, 76069,0,996.303863
32731, 0, 120, 364912, 77299,0,1000.262565
32732, 0, 120, 363815, 76096,0,1004.294268
32733, 0, 120, 365115, 77275,0,1008.32527
32734, 0, 120, 363823, 75938,0,1012.345272
32735, 0, 120, 365236, 77059,0,1016.288074
32736, 0, 120, 363752, 76054,0,1020.287077
32737, 0, 120, 365140, 76907,0,1024.297279
32738, 0, 120, 363730, 76357,0,1028.292681
32739, 0, 120, 364818, 76904,0,1032.288083
32740, 0, 120, 363817, 76829,0,1036.282086
32741, 0, 120, 364812, 76757,0,1040.319588
32742, 0, 120, 363691, 76831,0,1044.35369
32743, 0, 120, 364744, 76493,0,1048.302692
32744, 0, 120, 364081, 76874,0,1052.381395
32745, 0, 120, 364468, 76450,0,1056.246797
32746, 0, 120, 364549, 76865,0,1060.324799
32747, 0, 120, 364395, 76220,0,1064.395001
32748, 0, 120, 364573, 76891,0,1068.369804
32749, 0, 120, 364399, 76115,0,1072.342906
32750, 0, 120, 364520, 77143,0,1076.266108
32751, 0, 120, 364005, 76122,0,1080.485511
32752, 0, 120, 364609, 77527,0,1084.325113
32753, 0, 120, 363926, 76122,0,1088.248115
32754, 0, 120, 364550, 77491,0,1092.311317
32755, 0, 120, 363924, 76029,0,1096.177219
32756, 0, 120, 364853, 77293,0,1100.161522
32757, 0, 120, 363716, 76118,0,1104.240524
32758, 0, 120, 365346, 77236,0,1108.174026
32759, 0, 120, 363815, 75980,0,1112.292829
32760, 0, 120, 365163, 77094,0,1116.391831
32761, 0, 120, 363959, 76013,0,1120.380733
32762, 0, 120, 365014, 76860,0,1124.318935
32763, 0, 120, 363679, 76443,0,1128.520938
32764, 0, 120, 364981, 76811,0,1132.58024
32765, 0, 120, 363748, 76771,0,1136.328442
32766, 0, 120, 364808, 76793,0,1140.373744
32767, 0, 120, 363868, 76834,0,1144.253947
32768, 0, 120, 364679, 76441,0,1148.369949
32769, 0, 120, 364058, 76926,0,1152.476451
32770, 0, 120, 364669, 76362,0,1156.487954
32771, 0, 120, 364474, 76828,0,1160.218656
32772, 0, 120, 364368, 76309,0,1164.517158
32773, 0, 120, 364720, 76802,0,1168.33706
32774, 0, 120, 364277, 76072,0,1172.325362
32775, 0, 120, 364504, 77254,0,1176.459865
32776, 0, 120, 364111, 76078,0,1180.387767
32777, 0, 120, 364485, 77400,0,1184.443669
32778, 0, 120, 363868, 76281,0,1188.331972
32779, 0, 120, 364705, 77404,0,1192.387174
32780, 0, 120, 363808, 75919,0,1196.384676
32781, 0, 120, 364812, 77441,0,1200.445578
32782, 0, 120, 363831, 76069,0,1204.431181
32783, 0, 120, 365239, 77181,0,1208.661683
32784, 0, 120, 363715, 76119,0,1212.575385
32785, 0, 120, 365258, 76996,0,1216.467787
32786, 0, 120, 363819, 75960,0,1220.51429
32787, 0, 120, 364961, 77059,0,1224.383092
32788, 0, 120, 363763, 76342,0,1228.302494
32789, 0, 120, 364905, 76786,0,1232.563597
32790, 0, 120, 363612, 76988,0,1236.409499
32791, 0, 120, 364883, 76742,0,1240.486901
32792, 0, 120, 363770, 76772,0,1244.457703
32793, 0, 120, 364580, 76656,0,1248.496606
32794, 0, 120, 364190, 76905,0,1252.432908
32795, 0, 120, 364571, 76330,0,1256.49811
32796, 0, 120, 364431, 77064,0,1260.274912
32797, 0, 120, 364414, 76210,0,1264.368314
32798, 0, 120, 364694, 76775,0,1268.306217
32799, 0, 120, 364135, 76177,0,1272.311719
32800, 0, 120, 364587, 77199,0,1276.477421
32801, 0, 120, 364121, 76063,0,1280.451924
32802, 0, 120, 364403, 77526,0,1284.394726
32803, 0, 120, 363988, 76192,0,1288.454728
32804, 0, 120, 364728, 77372,0,1292.37503
32805, 0, 120, 363660, 76036,0,1296.465933
32806, 0, 120, 364951, 77319,0,1300.466535
32807, 0, 120, 363843, 75979,0,1304.414537
32808, 0, 120, 365152, 77310,0,1308.349939
32809, 0, 120, 363793, 76009,0,1312.421542
32810, 0, 120, 365232, 76946,0,1316.428144
32811, 0, 120, 363732, 76080,0,1320.478646
32812, 0, 120, 365088, 76978,0,1324.510648
32813, 0, 120, 363743, 76287,0,1328.399951
32814, 0, 120, 364831, 76855,0,1332.326253
32815, 0, 120, 363762, 76884,0,1336.417555
32816, 0, 120, 364877, 76609,0,1340.405357
32817, 0, 120, 363684, 76872,0,1344.40886
32818, 0, 120, 364721, 76578,0,1348.409862
32819, 0, 120, 364191, 76845,0,1352.743064
32820, 0, 120, 364553, 76443,0,1356.692667
32821, 0, 120, 364503, 77014,0,1360.604069
32822, 0, 120, 364390, 76151,0,1364.328971
32823, 0, 120, 364627, 76891,0,1368.403573
32824, 0, 120, 364257, 76157,0,1372.170975
32825, 0, 120, 364606, 77074,0,1376.132978
32826, 0, 120, 364040, 76087,0,1380.43408
32827, 0, 120, 364487, 77597,0,1384.378782
32828, 0, 120, 363990, 76053,0,1388.688285
32829, 0, 120, 364638, 77420,0,1392.353787
32830, 0, 120, 363730, 76070,0,1396.357789
32831, 0, 120, 364967, 77240,0,1400.320091
32832, 0, 120, 363796, 76029,0,1404.422094
32833, 0, 120, 365137, 77279,0,1408.702896
32834, 0, 120, 363881, 75963,0,1412.357998
32835, 0, 120, 365152, 77075,0,1416.3395
32836, 0, 120, 363774, 76097,0,1420.388603
32837, 0, 120, 365095, 76924,0,1424.451305
32838, 0, 120, 363696, 76414,0,1428.434807
32839, 0, 120, 364734, 76920,0,1432.373809
32840, 0, 120, 363794, 76864,0,1436.259712
32841, 0, 120, 364809, 76760,0,1440.248514
32842, 0, 120, 363701, 76904,0,1444.357516
32843, 0, 120, 364745, 76463,0,1448.500619
32844, 0, 120, 364116, 76890,0,1452.465721
32845, 0, 120, 364441, 76441,0,1456.497123
32846, 0, 120, 364651, 76955,0,1460.383725
32847, 0, 120, 364382, 76182,0,1464.504128
32848, 0, 120, 364516, 76880,0,1468.29233
32849, 0, 120, 364348, 76092,0,1472.200032
32850, 0, 120, 364598, 77176,0,1476.260934
32851, 0, 120, 363951, 76150,0,1480.468737
32852, 0, 120, 364585, 77537,0,1484.375139
32853, 0, 120, 363915, 76105,0,1488.358541
32854, 0, 120, 364541, 77502,0,1492.223543
32855, 0, 120, 363838, 76040,0,1496.491146
32856, 0, 120, 364974, 77273,0,1500.232848
32857, 0, 120, 363755, 76112,0,1504.23965
32858, 0, 120, 365336, 77247,0,1508.218852
32859, 0, 120, 363810, 75965,0,1512.621955
32860, 0, 120, 365147, 77066,0,1516.388257
32861, 0, 120, 363893, 76048,0,1520.545559
32862, 0, 120, 364987, 76839,0,1524.398461
32863, 0, 120, 363657, 76502,0,1528.376464
32864, 0, 120, 364918, 76813,0,1532.364666
32865, 0, 120, 363728, 76824,0,1536.438068
32866, 0, 120, 364725, 76815,0,1540.34787
32867, 0, 120, 363874, 76831,0,1544.271173
32868, 0, 120, 364613, 76386,0,1548.311375
32869, 0, 120, 364135, 76968,0,1552.296177
32870, 0, 120, 364621, 76376,0,1556.381479
32871, 0, 120, 364552, 76783,0,1560.459582
32872, 0, 120, 364323, 76272,0,1564.352584
32873, 0, 120, 364658, 76833,0,1568.356786
32874, 0, 120, 364246, 76003,0,1572.336088
32875, 0, 120, 364497, 77334,0,1576.384491
32876, 0, 120, 364042, 76058,0,1580.358093
32877, 0, 120, 364482, 77425,0,1584.398095
32878, 0, 120, 363823, 76257,0,1588.289997
32879, 0, 120, 364711, 77431,0,1592.2041
32880, 0, 120, 363799, 75996,0,1596.387602
32881, 0, 120, 364902, 77388,0,1600.426104
32882, 0, 120, 363897, 76040,0,1604.346507
32883, 0, 120, 365287, 77195,0,1608.442509
32884, 0, 120, 363731, 76115,0,1612.527111
32885, 0, 120, 365214, 77014,0,1616.417013
32886, 0, 120, 363876, 75981,0,1620.481216
32887, 0, 120, 364975, 77075,0,1624.367418
32888, 0, 120, 363758, 76447,0,1628.51982
32889, 0, 120, 364860, 76754,0,1632.476122
32890, 0, 120, 363587, 77019,0,1636.418925
32891, 0, 120, 364764, 76696,0,1640.393927
32892, 0, 120, 363824, 76773,0,1644.488329
32893, 0, 120, 364548, 76541,0,1648.398431
32894, 0, 120, 364216, 76907,0,1652.469434
32895, 0, 120, 364548, 76328,0,1656.419436
32896, 0, 120, 364410, 76986,0,1660.468538
32897, 0, 120, 364403, 76192,0,1664.37184
32898, 0, 120, 364631, 76754,0,1668.401143
32899, 0, 120, 364125, 76136,0,1672.347945
32900, 0, 120, 364587, 77302,0,1676.350447
32901, 0, 120, 364071, 76019,0,1680.355449
32902, 0, 120, 364430, 77548,0,1684.353052
32903, 0, 120, 363910, 76208,0,1688.357154
32904, 0, 120, 364721, 77396,0,1692.214756
32905, 0, 120, 363732, 76064,0,1696.348059
32906, 0, 120, 365043, 77343,0,1700.302661
32907, 0, 120, 363886, 75979,0,1704.198063
32908, 0, 120, 365174, 77269,0,1708.380465
32909, 0, 120, 363844, 75988,0,1712.396768
32910, 0, 120, 365275, 76925,0,1716.28917
32911, 0, 120, 363750, 76101,0,1720.365572
32912, 0, 120, 365060, 76947,0,1724.374474
32913, 0, 120, 363760, 76408,0,1728.461077
32914, 0, 120, 364810, 76925,0,1732.390879
32915, 0, 120, 363666, 76943,0,1736.292381
32916, 0, 120, 364791, 76616,0,1740.277583
32917, 0, 120, 363729, 76840,0,1744.274986
32918, 0, 120, 364605, 76546,0,1748.367188
32919, 0, 120, 364316, 76769,0,1752.27909
32920, 0, 120, 364551, 76373,0,1756.234392
32921, 0, 120, 364492, 77031,0,1760.439795
32922, 0, 120, 364421, 76081,0,1764.446697
32923, 0, 120, 364623, 76877,0,1768.417499
32924, 0, 120, 364173, 76203,0,1772.591602
32925, 0, 120, 364572, 77184,0,1776.692504
32926, 0, 120, 363973, 76096,0,1780.462006
32927, 0, 120, 364413, 77579,0,1784.380008
32928, 0, 120, 363952, 76066,0,1788.626911
32929, 0, 120, 364675, 77436,0,1792.386713
32930, 0, 120, 363665, 76050,0,1796.817915
32931, 0, 120, 365075, 77246,0,1800.706417
32932, 0, 120, 363794, 76095,0,1804.55912
32933, 0, 120, 365116, 77290,0,1808.267322
32934, 0, 120, 363850, 75972,0,1812.552524
32935, 0, 120, 365111, 77017,0,1816.380326
32936, 0, 120, 363734, 76128,0,1820.829129
32937, 0, 120, 365097, 76871,0,1824.560531
32938, 0, 120, 363679, 76530,0,1828.343733
32939, 0, 120, 364759, 76866,0,1832.332135
32940, 0, 120, 363761, 76887,0,1836.301438
32941, 0, 120, 364739, 76728,0,1840.39194
32942, 0, 120, 363673, 76915,0,1844.349442
32943, 0, 120, 364711, 76482,0,1848.452744
32944, 0, 120, 364225, 76871,0,1852.484647
32945, 0, 120, 364439, 76432,0,1856.619649
32946, 0, 120, 364609, 76940,0,1860.505351
32947, 0, 120, 364355, 76113,0,1864.448154
32948, 0, 120, 364539, 76977,0,1868.334656
32949, 0, 120, 364328, 76087,0,1872.207358
32950, 0, 120, 364607, 77236,0,1876.25056
32951, 0, 120, 363947, 76150,0,1880.233962
32952, 0, 120, 364570, 77518,0,1884.283265
32953, 0, 120, 363811, 76063,0,1888.429967
32954, 0, 120, 364566, 77489,0,1892.264669
32955, 0, 120, 363893, 76055,0,1896.268571
32956, 0, 120, 365012, 77204,0,1900.179874
32957, 0, 120, 363787, 76094,0,1904.160276
32958, 0, 120, 365350, 77155,0,1908.310578
32959, 0, 120, 363772, 75893,0,1912.308281
32960, 0, 120, 365113, 77009,0,1916.279883
32961, 0, 120, 363856, 76064,0,1920.309885
32962, 0, 120, 365010, 76800,0,1924.313787
32963, 0, 120, 363595, 76607,0,1928.27339
32964, 0, 120, 364842, 76823,0,1932.409492
32965, 0, 120, 363670, 76841,0,1936.387694
32966, 0, 120, 364734, 76743,0,1940.565197
32967, 0, 120, 363921, 76807,0,1944.318599
32968, 0, 120, 364586, 76410,0,1948.469301
32969, 0, 120, 364294, 76951,0,1952.440403
32970, 0, 120, 364584, 76326,0,1956.484806
32971, 0, 120, 364548, 76879,0,1960.462508
32972, 0, 120, 364284, 76301,0,1964.41841
32973, 0, 120, 364669, 76886,0,1968.386012
32974, 0, 120, 364201, 76008,0,1972.466415
32975, 0, 120, 364530, 77419,0,1976.395417
32976, 0, 120, 364001, 76020,0,1980.330219
32977, 0, 120, 364478, 77482,0,1984.406321
32978, 0, 120, 363822, 76227,0,1988.474924
32979, 0, 120, 364721, 77440,0,1992.419026
32980, 0, 120, 363777, 75994,0,1996.431328
32981, 0, 120, 364945, 77385,0,2000.46713
32982, 0, 120, 363840, 76011,0,2004.425333
32983, 0, 120, 365249, 77140,0,2008.341435
32984, 0, 120, 363689, 76141,0,2012.374237
32985, 0, 120, 365179, 76958,0,2016.284139
32986, 0, 120, 363785, 76051,0,2020.337142
32987, 0, 120, 364939, 77057,0,2024.330044
32988, 0, 120, 363709, 76548,0,2028.337946
32989, 0, 120, 364825, 76743,0,2032.354148
32990, 0, 120, 363536, 77036,0,2036.408151
32991, 0, 120, 364733, 76659,0,2040.355253
32992, 0, 120, 363852, 76769,0,2044.333055
32993, 0, 120, 364510, 76542,0,2048.285157
32994, 0, 120, 364352, 76905,0,2052.19976
32995, 0, 120, 364496, 76310,0,2056.392362
32996, 0, 120, 364420, 76991,0,2060.359664
32997, 0, 120, 364312, 76172,0,2064.366366
32998, 0, 120, 364597, 76880,0,2068.341969
32999, 0, 120, 364072, 76137,0,2072.267171
33000, 0, 120, 364655, 77302,0,2076.283473
33001, 0, 120, 364050, 76059,0,2080.459176
33002, 0, 120, 364411, 77597,0,2084.273178
33003, 0, 120, 363926, 76152,0,2088.18248
33004, 0, 120, 364731, 77347,0,2092.168982
33005, 0, 120, 363702, 76074,0,2096.467785
33006, 0, 120, 365121, 77273,0,2100.259087
33007, 0, 120, 363858, 75942,0,2104.361489
33008, 0, 120, 365152, 77205,0,2108.302091
33009, 0, 120, 363759, 76019,0,2112.389794
33010, 0, 120, 365190, 76876,0,2116.463496
33011, 0, 120, 363746, 76159,0,2120.410498
33012, 0, 120, 365060, 76952,0,2124.4437
33013, 0, 120, 363732, 76517,0,2128.454203
33014, 0, 120, 364713, 76793,0,2132.406005
33015, 0, 120, 363732, 76964,0,2136.332107
33016, 0, 120, 364760, 76578,0,2140.554809
33017, 0, 120, 363787, 76865,0,2144.304612
33018, 0, 120, 364598, 76479,0,2148.626314
33019, 0, 120, 364379, 76792,0,2152.597416
33020, 0, 120, 364460, 76344,0,2156.505219
33021, 0, 120, 364537, 77001,0,2160.444921
33022, 0, 120, 364339, 76086,0,2164.478523
33023, 0, 120, 364592, 76951,0,2168.379825
33024, 0, 120, 364115, 76136,0,2172.510228
33025, 0, 120, 364658, 77242,0,2176.39373
33026, 0, 120, 363949, 76118,0,2180.412232
33027, 0, 120, 364464, 77585,0,2184.207034
33028, 0, 120, 363893, 76060,0,2188.842037
33029, 0, 120, 364617, 77427,0,2192.376339
33030, 0, 120, 363687, 76043,0,2196.336641
33031, 0, 120, 365078, 77176,0,2200.208943
33032, 0, 120, 363837, 76064,0,2204.255845
33033, 0, 120, 365178, 77181,0,2208.218748
33034, 0, 120, 363804, 75910,0,2212.44345
33035, 0, 120, 365134, 77039,0,2216.202452
33036, 0, 120, 363739, 76172,0,2220.363155
33037, 0, 120, 365058, 76842,0,2224.248457
33038, 0, 120, 363709, 76655,0,2228.342059
33039, 0, 120, 364683, 76858,0,2232.287461
33040, 0, 120, 363746, 76871,0,2236.177764
33041, 0, 120, 364666, 76651,0,2240.197266
33042, 0, 120, 363799, 76918,0,2244.315268
33043, 0, 120, 364671, 76400,0,2248.22787
33044, 0, 120, 364318, 76882,0,2252.259373
33045, 0, 120, 364401, 76373,0,2256.086475
33046, 0, 120, 364576, 76903,0,2260.104777
33047, 0, 120, 364266, 76166,0,2264.277679
33048, 0, 120, 364539, 77029,0,2268.217482
33049, 0, 120, 364272, 76113,0,2272.118084
33050, 0, 120, 364564, 77365,0,2276.152186
33051, 0, 120, 363799, 76158,0,2280.309688
33052, 0, 120, 364573, 77497,0,2284.157191
33053, 0, 120, 363805, 76152,0,2288.115193
33054, 0, 120, 364626, 77477,0,2292.096695
33055, 0, 120, 363882, 75986,0,2296.414598
33056, 0, 120, 365073, 77193,0,2300.1598
33057, 0, 120, 363733, 76092,0,2304.334202
33058, 0, 120, 365286, 77159,0,2308.165704
33059, 0, 120, 363702, 75980,0,2312.343207
33060, 0, 120, 365011, 77080,0,2316.419409
33061, 0, 120, 363863, 76181,0,2320.304011
33062, 0, 120, 364992, 76816,0,2324.173313
33063, 0, 120, 363644, 76693,0,2328.302316
33064, 0, 120, 364842, 76764,0,2332.344418
33065, 0, 120, 363646, 76881,0,2336.24912
33066, 0, 120, 364612, 76672,0,2340.666023
33067, 0, 120, 363934, 76856,0,2344.586725
33068, 0, 120, 364611, 76393,0,2348.345127
33069, 0, 120, 364299, 76894,0,2352.351529
33070, 0, 120, 364581, 76285,0,2356.224131
33071, 0, 120, 364556, 76866,0,2360.288734
33072, 0, 120, 364279, 76179,0,2364.830336
33073, 0, 120, 364680, 76978,0,2368.388938
33074, 0, 120, 364173, 75988,0,2372.38684
33075, 0, 120, 364537, 77497,0,2376.216743
33076, 0, 120, 364031, 76111,0,2380.406645
33077, 0, 120, 364504, 77489,0,2384.274847
33078, 0, 120, 363754, 76205,0,2388.51735
33079, 0, 120, 364712, 77367,0,2392.489852
33080, 0, 120, 363779, 75915,0,2396.442554
33081, 0, 120, 365058, 77349,0,2400.332856
33082, 0, 120, 363842, 76037,0,2404.325059
33083, 0, 120, 365246, 77063,0,2408.170161
33084, 0, 120, 363685, 76095,0,2412.336363
33085, 0, 120, 365157, 76964,0,2416.465265
33086, 0, 120, 363776, 76137,0,2420.301268
33087, 0, 120, 364904, 77009,0,2424.19737
33088, 0, 120, 363690, 76614,0,2428.499572
33089, 0, 120, 364712, 76699,0,2432.321074
33090, 0, 120, 363599, 77027,0,2436.310777
33091, 0, 120, 364672, 76656,0,2440.221179
33092, 0, 120, 363894, 76756,0,2444.401781
33093, 0, 120, 364466, 76525,0,2448.372983
33094, 0, 120, 364438, 76812,0,2452.643086
33095, 0, 120, 364445, 76201,0,2456.400388
33096, 0, 120, 364434, 77090,0,2460.37929
33097, 0, 120, 364308, 76099,0,2464.460692
33098, 0, 120, 364664, 76947,0,2468.296395
33099, 0, 120, 364044, 76143,0,2472.232397
33100, 0, 120, 364622, 77395,0,2476.392999
33101, 0, 120, 364006, 76012,0,2480.744702
33102, 0, 120, 364465, 77626,0,2484.376904
33103, 0, 120, 363878, 76167,0,2488.257606
33104, 0, 120, 364751, 77305,0,2492.225708
33105, 0, 120, 363665, 76099,0,2496.501811
33106, 0, 120, 365095, 77208,0,2500.305213
33107, 0, 120, 363858, 75993,0,2504.271515
33108, 0, 120, 365077, 77187,0,2508.164517
33109, 0, 120, 363749, 76051,0,2512.205019
33110, 0, 120, 365163, 76913,0,2516.382322
33111, 0, 120, 363593, 76258,0,2520.264324
33112, 0, 120, 364961, 76888,0,2524.151026
33113, 0, 120, 363693, 76595,0,2528.577729
33114, 0, 120, 364663, 76797,0,2532.326731
33115, 0, 120, 363690, 76961,0,2536.200733
33116, 0, 120, 364662, 76538,0,2540.120835
33117, 0, 120, 363822, 76848,0,2544.091837
33118, 0, 120, 364553, 76449,0,2548.38614
33119, 0, 120, 364493, 76746,0,2552.257742
33120, 0, 120, 364358, 76319,0,2556.139244
33121, 0, 120, 364558, 76937,0,2560.184047
33122, 0, 120, 364344, 76053,0,2564.343549
33123, 0, 120, 364565, 77040,0,2568.273151
33124, 0, 120, 364155, 76114,0,2572.478354
33125, 0, 120, 364637, 77348,0,2576.281556
33126, 0, 120, 363857, 76144,0,2580.368458
33127, 0, 120, 364472, 77559,0,2584.28906
33128, 0, 120, 363892, 76043,0,2588.277662
33129, 0, 120, 364717, 77437,0,2592.069765
33130, 0, 120, 363719, 76093,0,2596.423667
33131, 0, 120, 365203, 77120,0,2600.359769
33132, 0, 120, 363795, 76061,0,2604.647272
33133, 0, 120, 365178, 77214,0,2608.257574
33134, 0, 120, 363749, 75921,0,2612.375976
33135, 0, 120, 365077, 76987,0,2616.403378
33136, 0, 120, 363707, 76262,0,2620.323581
33137, 0, 120, 365032, 76766,0,2624.237083
33138, 0, 120, 363646, 76716,0,2628.369485
33139, 0, 120, 364687, 76749,0,2632.258687
33140, 0, 120, 363709, 76864,0,2636.56939
33141, 0, 120, 364658, 76631,0,2640.440292
33142, 0, 120, 363797, 76901,0,2644.320394
33143, 0, 120, 364580, 76325,0,2648.425396
33144, 0, 120, 364497, 76864,0,2652.356699
33145, 0, 120, 364381, 76293,0,2656.251101
33146, 0, 120, 364561, 76894,0,2660.199803
33147, 0, 120, 364261, 76136,0,2664.660906
33148, 0, 120, 364470, 77062,0,2668.272508
33149, 0, 120, 364166, 76033,0,2672.16831
33150, 0, 120, 364578, 77523,0,2676.123212
33151, 0, 120, 363790, 76174,0,2680.962615
33152, 0, 120, 364579, 77501,0,2684.307917
33153, 0, 120, 363760, 76163,0,2688.127819
33154, 0, 120, 364670, 77435,0,2692.123921
33155, 0, 120, 363788, 75998,0,2696.359424
33156, 0, 120, 365135, 77196,0,2700.298626
33157, 0, 120, 363687, 76023,0,2704.247928
33158, 0, 120, 365243, 77117,0,2708.20453
33159, 0, 120, 363692, 75998,0,2712.531733
33160, 0, 120, 364930, 76990,0,2716.503935
33161, 0, 120, 363814, 76248,0,2720.361237
33162, 0, 120, 364940, 76882,0,2724.312739
33163, 0, 120, 363597, 76767,0,2728.839542
33164, 0, 120, 364760, 76743,0,2732.357044
33165, 0, 120, 363629, 76887,0,2736.372046
33166, 0, 120, 364569, 76621,0,2740.218148
33167, 0, 120, 364024, 76835,0,2744.248751
33168, 0, 120, 364513, 76355,0,2748.385153
33169, 0, 120, 364441, 76918,0,2752.457255
33170, 0, 120, 364514, 76273,0,2756.193957
33171, 0, 120, 364486, 76862,0,2760.13426
33172, 0, 120, 364146, 76152,0,2764.319162
33173, 0, 120, 364687, 77074,0,2768.283264
33174, 0, 120, 364091, 76008,0,2772.200466
33175, 0, 120, 364519, 77520,0,2776.254669
33176, 0, 120, 364009, 76076,0,2780.371771
33177, 0, 120, 364446, 77404,0,2784.287673
33178, 0, 120, 363681, 76190,0,2788.177375
33179, 0, 120, 364845, 77341,0,2792.203778
33180, 0, 120, 363685, 75933,0,2796.53208
33181, 0, 120, 365047, 77281,0,2800.356082
33182, 0, 120, 363882, 75946,0,2804.213284
33183, 0, 120, 365144, 77002,0,2808.170987
33184, 0, 120, 363671, 76125,0,2812.514589
33185, 0, 120, 365115, 76936,0,2816.550391
33186, 0, 120, 363734, 76209,0,2820.234693
33187, 0, 120, 364889, 76983,0,2824.187796
33188, 0, 120, 363688, 76720,0,2828.275498
33189, 0, 120, 364730, 76645,0,2832.3616
33190, 0, 120, 363600, 76969,0,2836.284103
33191, 0, 120, 364691, 76573,0,2840.242305
33192, 0, 120, 363980, 76748,0,2844.144407
33193, 0, 120, 364420, 76528,0,2848.270909
33194, 0, 120, 364492, 76790,0,2852.354312
33195, 0, 120, 364424, 76222,0,2856.181614
33196, 0, 120, 364404, 77023,0,2860.166816
33197, 0, 120, 364238, 76069,0,2864.349418
33198, 0, 120, 364608, 77023,0,2868.182021
33199, 0, 120, 363960, 76157,0,2872.138623
33200, 0, 120, 364615, 77478,0,2876.106525
33201, 0, 120, 363886, 76020,0,2880.522928
33202, 0, 120, 364385, 77651,0,2884.31263
33203, 0, 120, 363781, 76132,0,2888.200032
33204, 0, 120, 364839, 77320,0,2892.216834
33205, 0, 120, 363620, 76135,0,2896.525637
33206, 0, 120, 365189, 77132,0,2900.295439
33207, 0, 120, 363820, 75982,0,2904.380241
33208, 0, 120, 365003, 77202,0,2908.249843
33209, 0, 120, 363769, 76055,0,2912.344746
33210, 0, 120, 365094, 76875,0,2916.463348
33211, 0, 120, 363650, 76366,0,2920.32015
33212, 0, 120, 364931, 76889,0,2924.237252
33213, 0, 120, 363714, 76731,0,2928.309455
33214, 0, 120, 364569, 76769,0,2932.482857
33215, 0, 120, 363712, 76935,0,2936.319959
33216, 0, 120, 364655, 76574,0,2940.151061
33217, 0, 120, 363904, 76870,0,2944.321964
33218, 0, 120, 364473, 76386,0,2948.341866
33219, 0, 120, 364542, 76686,0,2952.282368
33220, 0, 120, 364296, 76288,0,2956.20387
33221, 0, 120, 364519, 76998,0,2960.200773
33222, 0, 120, 364254, 75986,0,2964.408975
33223, 0, 120, 364485, 77165,0,2968.231477
33224, 0, 120, 364045, 76123,0,2972.142079
33225, 0, 120, 364651, 77416,0,2976.083382
33226, 0, 120, 363793, 76161,0,2980.728984
33227, 0, 120, 364551, 77533,0,2984.229586
33228, 0, 120, 363832, 76018,0,2988.244488
33229, 0, 120, 364767, 77370,0,2992.674491
33230, 0, 120, 363779, 76114,0,2996.434493
33231, 0, 120, 365222, 77096,0,3001.873596
33232, 0, 120, 363791, 76079,660,3092.361947
33233, 0, 120, 365066, 77166,630,3093.513548
33234, 0, 120, 363767, 75930,600,3094.161048
33235, 0, 120, 364990, 76939,570,3094.543448
33236, 0, 120, 363687, 76424,570,3096.42225
33237, 0, 120, 364975, 76767,540,3096.72185
33238, 0, 120, 363633, 76785,510,3099.720651
33239, 0, 120, 364610, 76782,510,3100.204852
33240, 0, 120, 363740, 76858,480,3102.050753
33241, 0, 120, 364633, 76569,450,3103.347653
33242, 0, 120, 363920, 76886,420,3103.790854
33243, 0, 120, 364504, 76273,450,3108.076256
33244, 0, 120, 364503, 76813,450,3113.084459
33245, 0, 120, 364269, 76341,420,3114.92946
33246, 0, 120, 364524, 76908,390,3115.68766
33247, 0, 120, 364131, 76170,390,3116.449861
33248, 0, 120, 364503, 77227,360,3116.878361
33249, 0, 120, 364117, 76012,330,3117.275561
33250, 0, 120, 364591, 77557,300,3117.958662
33251, 0, 120, 363703, 76198,270,3118.376262
33252, 0, 120, 364536, 77392,240,3118.750362
33253, 0, 120, 363757, 76177,210,3119.343862
33254, 0, 120, 364688, 77383,180,3119.890563
33255, 0, 120, 363804, 75965,180,3120.325463
33256, 0, 120, 365170, 77175,150,3120.646963
33257, 0, 120, 363702, 76011,120,3121.168964
33258, 0, 120, 365196, 77057,90,3121.544964
33259, 0, 120, 363705, 76037,60,3122.683464
33260, 0, 120, 364933, 77023,30,3123.205165
33261, 0, 120, 363769, 76369,0,3123.519565
33262, 0, 120, 364948, 76859,0,3124.529265
33263, 0, 120, 363592, 76838,0,3129.703768
33264, 0, 120, 364759, 76624,0,3132.75217
33265, 0, 120, 363610, 76923,0,3136.342572
33266, 0, 120, 364479, 76641,0,3140.348774
33267, 0, 120, 364134, 76826,0,3144.337777
33268, 0, 120, 364462, 76311,0,3149.75248
33269, 0, 120, 364487, 76838,0,3154.624782
33270, 0, 120, 364461, 76205,0,3156.599584
33271, 0, 120, 364522, 76881,0,3160.539986
33272, 0, 120, 364110, 76111,0,3164.412388
33273, 0, 120, 364686, 77168,0,3169.767491
33274, 0, 120, 364015, 76028,0,3175.178194
33275, 0, 120, 364501, 77514,0,3178.723196
33276, 0, 120, 363935, 76086,0,3182.349598
33277, 0, 120, 364506, 77393,0,3187.381601
33278, 0, 120, 363672, 76182,0,3189.687902
33279, 0, 120, 364954, 77313,0,3193.978905
33280, 0, 120, 363727, 75931,0,3199.599508
33281, 0, 120, 365128, 77196,0,3202.212409
33282, 0, 120, 363867, 75963,0,3207.341612
33283, 0, 120, 365129, 76997,0,3210.122814
33284, 0, 120, 363615, 76124,0,3214.074316
33285, 0, 120, 365097, 76939,0,3218.056218
33286, 0, 120, 363715, 76354,0,3221.26802
33287, 0, 120, 364832, 76915,0,3225.582923
33288, 0, 120, 363726, 76725,0,3230.310625
33289, 0, 120, 364676, 76602,0,3233.391627
33290, 0, 120, 363586, 77039,300,3279.717153
33291, 0, 120, 364631, 76536,270,3280.280953
33292, 0, 120, 364065, 76713,240,3280.791554
33293, 0, 120, 364374, 76449,210,3281.388554
33294, 0, 120, 364567, 76734,180,3282.031454
33295, 0, 120, 364367, 76138,150,3282.577855
33296, 0, 120, 364443, 77036,120,3283.112555
33297, 0, 120, 364207, 76046,90,3283.690155
33298, 0, 120, 364522, 77172,60,3284.194356
33299, 0, 120, 363890, 76237,30,3284.728756
33300, 0, 120, 364634, 77462,0,3285.254256
33301, 0, 120, 363861, 75976,90,3301.272065
33302, 0, 120, 364497, 77541,60,3301.805166
33303, 0, 120, 363817, 76115,30,3302.469266
33304, 0, 120, 364931, 77280,0,3303.077266
33305, 0, 120, 363569, 76070,330,3344.34819
33306, 0, 120, 365244, 77116,300,3344.84959
33307, 0, 120, 363839, 75972,300,3345.50739
33308, 0, 120, 365023, 77157,270,3346.062991
33309, 0, 120, 363736, 76065,240,3346.624691
33310, 0, 120, 364966, 76903,210,3347.108591
33311, 0, 120, 363619, 76569,180,3347.651291
33312, 0, 120, 364891, 76845,150,3348.232392
33313, 0, 120, 363675, 76744,120,3349.001892
33314, 0, 120, 364577, 76767,90,3349.662393
33315, 0, 120, 363663, 76881,60,3350.164193
33316, 0, 120, 364628, 76507,30,3350.658293
33317, 0, 120, 364021, 76926,450,3406.783625
33318, 0, 120, 364523, 76351,660,3437.634442
33319, 0, 120, 364616, 76687,630,3438.033243
33320, 0, 120, 364187, 76239,600,3438.251943
33321, 0, 120, 364501, 76965,570,3438.975043
33322, 0, 120, 364185, 75983,540,3439.677743
33323, 0, 120, 364403, 77298,540,3440.045944
33324, 0, 120, 363983, 76137,510,3440.264244
33325, 0, 120, 364682, 77398,480,3440.479144
33326, 0, 120, 363731, 76114,450,3440.694944
33327, 0, 120, 364569, 77474,420,3440.962044
33328, 0, 120, 363771, 76030,390,3441.177944
33329, 0, 120, 364858, 77364,360,3441.415444
33330, 0, 120, 363743, 76011,330,3441.636845
33331, 0, 120, 365229, 77011,300,3441.833345
33332, 0, 120, 363729, 75968,270,3442.029145
33333, 0, 120, 365138, 77062,240,3442.246545
33334, 0, 120, 363713, 75953,210,3442.489745
33335, 0, 120, 364931, 76957,180,3442.732745
33336, 0, 120, 363724, 76544,150,3442.946745
33337, 0, 120, 364947, 76750,120,3443.203845
33338, 0, 120, 363577, 76843,90,3443.437946
33339, 0, 120, 364653, 76722,60,3443.657246
33340, 0, 120, 363738, 76829,60,3443.932446
33341, 0, 120, 364518, 76573,30,3444.199946
33342, 0, 120, 364122, 76912,0,3444.457646
33343, 0, 120, 364465, 76225,0,3448.334548
33344, 0, 120, 364541, 76764,0,3452.225351
33345, 0, 120, 364301, 76209,0,3456.178953
33346, 0, 120, 364522, 76881,0,3460.194255
33347, 0, 120, 364109, 76079,0,3464.407257
33348, 0, 120, 364455, 77277,0,3468.22656
33349, 0, 120, 364077, 76010,0,3472.214762
33350, 0, 120, 364561, 77515,0,3476.071964
33351, 0, 120, 363730, 76164,0,3480.313466
33352, 0, 120, 364594, 77337,330,3531.651495
33353, 0, 120, 363722, 76132,450,3549.902506
33354, 0, 120, 364844, 77405,420,3550.127206
33355, 0, 120, 363756, 75938,390,3550.449506
33356, 0, 120, 365179, 77134,360,3550.839706
33357, 0, 120, 363726, 76043,330,3551.402307
33358, 0, 120, 365097, 76980,330,3552.421907
33359, 0, 120, 363645, 76103,300,3552.716607
33360, 0, 120, 364828, 76955,270,3552.938007
33361, 0, 120, 363724, 76504,240,3553.425708
33362, 0, 120, 364860, 76867,210,3554.601308
33363, 0, 120, 363567, 76945,180,3555.392609
33364, 0, 120, 364713, 76645,180,3556.316009
33365, 0, 120, 363734, 76945,150,3557.53551
33366, 0, 120, 364475, 76537,120,3558.366211
33367, 0, 120, 364190, 76839,90,3559.466411
33368, 0, 120, 364427, 76313,90,3560.636812
33369, 0, 120, 364449, 76826,60,3562.072813
33370, 0, 120, 364395, 76136,60,3566.784715
33371, 0, 120, 364442, 76935,60,3568.085916
33372, 0, 120, 363975, 76117,90,3577.367021
33373, 0, 120, 364595, 77289,60,3579.311422
33374, 0, 120, 363948, 76093,60,3582.437424
33375, 0, 120, 364518, 77545,60,3584.998026
33376, 0, 120, 363865, 76062,90,3591.912629
33377, 0, 120, 364543, 77405,60,3593.960031
33378, 0, 120, 363594, 76133,30,3595.323931
33379, 0, 120, 365077, 77275,30,3596.392832
33380, 0, 120, 363674, 75966,0,3597.327233
33381, 0, 120, 365129, 77113,0,3600.924335
33382, 0, 120, 363904, 76027,360,3655.442865
33383, 0, 120, 365001, 77032,360,3656.727966
33384, 0, 120, 363562, 76137,330,3657.662467
33385, 0, 120, 365037, 76855,330,3660.057868
33386, 0, 120, 363630, 76530,300,3661.412469
33387, 0, 120, 364794, 76876,420,3680.035279
33388, 0, 120, 363714, 76809,390,3680.78138
33389, 0, 120, 364586, 76589,360,3681.22468
33390, 0, 120, 363700, 76955,330,3682.496681
33391, 0, 120, 364670, 76461,330,3684.595982
33392, 0, 120, 364186, 76784,330,3689.006984
33393, 0, 120, 364378, 76358,360,3696.611889
33394, 0, 120, 364699, 76756,330,3697.560389
33395, 0, 120, 364332, 76103,360,3707.303695
33396, 0, 120, 364436, 77023,360,3708.383795
33397, 0, 120, 364216, 76015,390,3717.4708
33398, 0, 120, 364484, 77249,450,3729.841007
33399, 0, 120, 363900, 76206,450,3735.603311
33400, 0, 120, 364652, 77491,540,3751.027619
33401, 0, 120, 363743, 75993,600,3762.733426
33402, 0, 120, 364568, 77472,750,3785.643639
33403, 0, 120, 363835, 76104,750,3789.299241
33404, 0, 120, 364944, 77217,780,3799.530547
33405, 0, 120, 363618, 76101,780,3800.850148
33406, 0, 120, 365237, 77050,750,3801.855648
33407, 0, 120, 363784, 75924,780,3808.782252
33408, 0, 120, 364992, 77134,750,3809.616352
33409, 0, 120, 363691, 76144,810,3822.29086
33410, 0, 120, 364917, 76779,780,3822.83816
33411, 0, 120, 363565, 76690,810,3829.579864
33412, 0, 120, 364870, 76767,780,3830.404864
33413, 0, 120, 363667, 76726,780,3832.610865
33414, 0, 120, 364524, 76734,930,3856.634979
33415, 0, 120, 363820, 76881,1290,3910.301809
33416, 0, 120, 364529, 76417,1260,3910.69111
33417, 0, 120, 364103, 76996,1230,3911.09561
33418, 0, 120, 364455, 76304,1230,3911.87591
33419, 0, 120, 364643, 76698,1200,3912.28131
33420, 0, 120, 364194, 76284,1170,3913.306111
33421, 0, 120, 364504, 76974,1140,3913.818111
33422, 0, 120, 364120, 76033,1110,3914.408412
33423, 0, 120, 364330, 77439,1080,3915.318012
33424, 0, 120, 363944, 76138,1080,3916.011713
33425, 0, 120, 364598, 77420,1050,3917.857414
33426, 0, 120, 363645, 76193,1020,3919.037614
33427, 0, 120, 364673, 77450,1020,3920.434115
33428, 0, 120, 363735, 76031,990,3921.473516
33429, 0, 120, 364926, 77370,960,3922.776916
33430, 0, 120, 363709, 76044,960,3924.057517
33431, 0, 120, 365211, 76989,930,3925.126418
33432, 0, 120, 363665, 75990,900,3926.218418
33433, 0, 120, 364985, 76993,870,3927.397319
33434, 0, 120, 363631, 75998,870,3928.86302
33435, 0, 120, 364807, 76863,840,3930.658621
33436, 0, 120, 363657, 76642,810,3931.950622
33437, 0, 120, 364843, 76704,810,3933.222022
33438, 0, 120, 363592, 76854,780,3934.488423
33439, 0, 120, 364656, 76660,780,3936.238724
33440, 0, 120, 363902, 76810,750,3937.896325
33441, 0, 120, 364440, 76499,720,3938.998626
33442, 0, 120, 364244, 76887,720,3940.332426
33443, 0, 120, 364449, 76170,720,3945.165729
33444, 0, 120, 364514, 76822,690,3947.24943
33445, 0, 120, 364334, 76188,780,3960.340238
33446, 0, 120, 364479, 76908,810,3969.457843
33447, 0, 120, 364011, 76097,780,3970.819744
33448, 0, 120, 364534, 77410,780,3972.236744
33449, 0, 120, 363983, 76059,750,3973.961445
33450, 0, 120, 364525, 77539,720,3975.462746
33451, 0, 120, 363798, 76099,720,3976.871247
33452, 0, 120, 364666, 77315,690,3978.124348
33453, 0, 120, 363675, 76126,870,4006.424264
33454, 0, 120, 365003, 77310,960,4021.244072
33455, 0, 120, 363756, 75931,960,4023.898074
33456, 0, 120, 365174, 77082,930,4026.793875
33457, 0, 120, 363748, 76049,960,4032.211378
33458, 0, 120, 365081, 76927,960,4036.899681
33459, 0, 120, 363676, 76209,930,4038.273682
33460, 0, 120, 364864, 76941,900,4039.548182
33461, 0, 120, 363743, 76617,900,4040.922383
33462, 0, 120, 364825, 76759,870,4042.744384
33463, 0, 120, 363606, 76880,870,4044.160085
33464, 0, 120, 364685, 76555,840,4045.307386
33465, 0, 120, 363786, 76958,810,4046.597886
33466, 0, 120, 364487, 76510,810,4049.295388
33467, 0, 120, 364360, 76812,780,4050.711089
33468, 0, 120, 364343, 76274,840,4060.252894
33469, 0, 120, 364440, 76829,930,4077.747304
33470, 0, 120, 364321, 76084,900,4078.898805
33471, 0, 120, 364400, 77081,900,4080.513906
33472, 0, 120, 363928, 76158,870,4081.890906
33473, 0, 120, 364534, 77351,870,4084.022707
33474, 0, 120, 363899, 76194,840,4085.696308
33475, 0, 120, 364523, 77527,870,4091.824212
33476, 0, 120, 363813, 76020,840,4092.121112
33477, 0, 120, 364666, 77463,810,4093.262013
33478, 0, 120, 363587, 76135,840,4100.113717
33479, 0, 120, 365142, 77214,840,4106.59622
33480, 0, 120, 363671, 76033,810,4106.81922
33481, 0, 120, 365091, 77099,780,4107.035321
33482, 0, 120, 363863, 75923,750,4107.251221
33483, 0, 120, 365036, 77009,720,4107.578321
33484, 0, 120, 363569, 76194,720,4111.708723
33485, 0, 120, 364938, 76869,720,4111.976923
33486, 0, 120, 363596, 76729,690,4112.268623
33487, 0, 120, 364690, 76814,690,4118.078027
33488, 0, 120, 363683, 76808,720,4127.530132
33489, 0, 120, 364560, 76592,690,4127.816832
33490, 0, 120, 363739, 76996,690,4128.036132
33491, 0, 120, 364619, 76470,660,4128.255032
33492, 0, 120, 364264, 76888,630,4128.474833
33493, 0, 120, 364328, 76331,600,4128.695633
33494, 0, 120, 364686, 76754,570,4128.924933
33495, 0, 120, 364196, 76092,540,4129.150433
33496, 0, 120, 364411, 77067,510,4129.610233
33497, 0, 120, 364166, 76043,480,4130.070934
33498, 0, 120, 364432, 77320,450,4130.540434
33499, 0, 120, 363860, 76207,420,4131.529934
33500, 0, 120, 364688, 77403,420,4132.858835
33501, 0, 120, 363730, 76001,390,4133.430135
33502, 0, 120, 364632, 77463,360,4133.967436
33503, 0, 120, 363799, 76045,330,4134.302136
33504, 0, 120, 365031, 77180,300,4134.550036
33505, 0, 120, 363648, 76090,270,4134.772736
33506, 0, 120, 365248, 77005,240,4135.016536
33507, 0, 120, 363779, 75914,210,4135.518237
33508, 0, 120, 364934, 77049,210,4136.547337
33509, 0, 120, 363683, 76192,180,4137.039637
33510, 0, 120, 364869, 76771,150,4137.537038
33511, 0, 120, 363584, 76822,120,4137.755638
33512, 0, 120, 364874, 76738,90,4137.971638
33513, 0, 120, 363678, 76727,60,4138.186538
33514, 0, 120, 364553, 76666,30,4138.431938
33515, 0, 120, 363924, 76892,0,4138.668238
33516, 0, 120, 364493, 76340,0,4140.200839
33517, 0, 120, 364215, 77005,0,4144.077841
33518, 0, 120, 364330, 76232,0,4148.208544
33519, 0, 120, 364558, 76713,0,4152.945046
33520, 0, 120, 364130, 76235,0,4156.184548
33521, 0, 120, 364483, 77052,0,4160.06795
33522, 0, 120, 364097, 76036,0,4164.320153
33523, 0, 120, 364369, 77548,0,4168.910155
33524, 0, 120, 363912, 76146,0,4172.153757
33525, 0, 120, 364576, 77411,0,4176.16446
33526, 0, 120, 363595, 76141,0,4180.339962
33527, 0, 120, 364784, 77390,0,4184.442064
33528, 0, 120, 363723, 76019,0,4188.031066
33529, 0, 120, 364943, 77371,0,4191.985968
33530, 0, 120, 363725, 76040,0,4196.111771
33531, 0, 120, 365151, 77015,0,4200.329573
33532, 0, 120, 363654, 76117,0,4204.318875
33533, 0, 120, 364999, 77012,0,4208.104178
33534, 0, 120, 363680, 76224,0,4212.03898
33535, 0, 120, 364727, 76953,0,4216.258482
33536, 0, 120, 363646, 76826,0,4220.221284
33537, 0, 120, 364756, 76688,0,4224.281287
33538, 0, 120, 363564, 76883,0,4228.122189
33539, 0, 120, 364637, 76576,0,4232.472091
33540, 0, 120, 363985, 76881,0,4236.364594
33541, 0, 120, 364383, 76500,0,4240.256596
33542, 0, 120, 364375, 76912,0,4244.041598
33543, 0, 120, 364410, 76172,0,4248.3347
33544, 0, 120, 364459, 76869,0,4252.403103
33545, 0, 120, 364224, 76131,0,4256.240305
33546, 0, 120, 364526, 77032,0,4260.271807
33547, 0, 120, 363956, 76100,0,4264.229209
33548, 0, 120, 364484, 77558,0,4268.730012
33549, 0, 120, 363932, 76064,0,4272.275814
33550, 0, 120, 364435, 77460,0,4276.281916
33551, 0, 120, 363716, 76082,0,4280.103718
33552, 0, 120, 364737, 77281,0,4284.807621
33553, 0, 120, 363569, 76118,0,4288.242423
33554, 0, 120, 365121, 77276,0,4292.208925
33555, 0, 120, 363773, 75883,0,4296.335027
33556, 0, 120, 365124, 77073,0,4300.55543
33557, 0, 120, 363786, 75973,0,4304.607932
33558, 0, 120, 365003, 76847,0,4308.190234
33559, 0, 120, 363617, 76298,0,4312.196836
33560, 0, 120, 364846, 76868,0,4316.303739
33561, 0, 120, 363673, 76752,0,4320.181341
33562, 0, 120, 364718, 76774,0,4324.229543
33563, 0, 120, 363726, 76859,0,4328.070745
33564, 0, 120, 364668, 76427,0,4332.780348
33565, 0, 120, 363890, 76924,0,4337.302351
33566, 0, 120, 364472, 76420,0,4340.138752
33567, 0, 120, 364409, 76817,0,4344.112954
33568, 0, 120, 364352, 76301,0,4348.247957
33569, 0, 120, 364570, 76878,0,4354.28206
33570, 0, 120, 364243, 76039,0,4356.946662
33571, 0, 120, 364486, 77138,0,4360.157164
33572, 0, 120, 364011, 76113,0,4364.361066
33573, 0, 120, 364495, 77379,0,4369.951169
33574, 0, 120, 363854, 76128,0,4372.10997
33575, 0, 120, 364521, 77503,0,4376.529073
33576, 0, 120, 363740, 75978,0,4380.319675
33577, 0, 120, 364756, 77374,0,4384.220077
33578, 0, 120, 363669, 76124,0,4388.117579
33579, 0, 120, 365126, 77203,0,4392.125582
33580, 0, 120, 363665, 76079,0,4396.090884
33581, 0, 120, 365017, 77090,0,4400.523586
33582, 0, 120, 363826, 75960,0,4404.515689
33583, 0, 120, 364969, 76984,0,4409.096191
33584, 0, 120, 363559, 76334,0,4412.199693
33585, 0, 120, 364847, 76753,0,4416.589295
33586, 0, 120, 363575, 76857,0,4420.646698
33587, 0, 120, 364636, 76804,0,4424.6186
33588, 0, 120, 363675, 76791,0,4428.058902
33589, 0, 120, 364599, 76512,0,4434.584606
33590, 0, 120, 363886, 76924,0,4436.641307
33591, 0, 120, 364537, 76364,0,4442.08341
33592, 0, 120, 364389, 76979,0,4444.197911
33593, 0, 120, 364187, 76227,0,4448.416813
33594, 0, 120, 364621, 76840,0,4452.898916
33595, 0, 120, 364140, 76106,0,4456.106418
33596, 0, 120, 364388, 77194,0,4461.955121
33597, 0, 120, 364081, 76056,0,4464.434222
33598, 0, 120, 364364, 77496,0,4471.011426
33599, 0, 120, 363727, 76236,0,4473.433628
33600, 0, 120, 364640, 77451,0,4476.193529
33601, 0, 120, 363694, 75983,0,4480.285731
33602, 0, 120, 364673, 77369,0,4485.051934
33603, 0, 120, 363797, 76049,0,4488.191936
33604, 0, 120, 365072, 77189,0,4492.216938
33605, 0, 120, 363570, 76062,0,4496.469441
33606, 0, 120, 365244, 76974,0,4500.324843
33607, 0, 120, 363725, 75944,0,4504.554745
33608, 0, 120, 364882, 76988,0,4508.137447
33609, 0, 120, 363740, 76332,0,4512.080249
33610, 0, 120, 364793, 76751,0,4516.455952
33611, 0, 120, 363486, 76899,0,4520.305754
33612, 0, 120, 364807, 76696,0,4524.087556
33613, 0, 120, 363663, 76761,0,4528.043858
33614, 0, 120, 364508, 76642,0,4532.377361
33615, 0, 120, 364099, 76899,0,4536.409063
33616, 0, 120, 364469, 76260,0,4540.045665
33617, 0, 120, 364381, 77037,0,4544.079867
33618, 0, 120, 364405, 76154,0,4548.27397
33619, 0, 120, 364564, 76718,0,4552.528772
33620, 0, 120, 364102, 76139,0,4556.205674
33621, 0, 120, 364474, 77188,0,4560.111076
33622, 0, 120, 363984, 75956,0,4564.391679
33623, 0, 120, 364341, 77618,0,4568.369381
33624, 0, 120, 363857, 76117,0,4572.331783
33625, 0, 120, 364541, 77355,0,4576.127386
33626, 0, 120, 363614, 76090,0,4580.282288
33627, 0, 120, 364828, 77315,0,4584.61779
33628, 0, 120, 363729, 75996,0,4588.158592
33629, 0, 120, 365100, 77345,0,4592.135695
33630, 0, 120, 363666, 76008,0,4596.348197
33631, 0, 120, 365111, 76906,0,4600.279999
33632, 0, 120, 363630, 76109,0,4604.295701
33633, 0, 120, 364988, 76910,0,4608.138304
33634, 0, 120, 363614, 76293,0,4612.113806
33635, 0, 120, 364595, 76913,0,4616.50811
33636, 0, 120, 363631, 76835,0,4620.226214
33637, 0, 120, 364712, 76659,0,4624.053019
33638, 0, 120, 363509, 76926,0,4628.368324
33639, 0, 120, 364528, 76494,0,4632.976929
33640, 0, 120, 364076, 76827,0,4638.918736
33641, 0, 120, 364369, 76497,30,4644.156043
33642, 0, 120, 364415, 76941,30,4648.854848
33643, 0, 120, 364279, 76174,0,4650.70625
33644, 0, 120, 364410, 76926,150,4674.419778
33645, 0, 120, 364173, 76142,210,4684.26319
33646, 0, 120, 364496, 77158,180,4686.614393
33647, 0, 120, 363842, 76165,180,4689.127196
33648, 0, 120, 364441, 77592,150,4690.220897
33649, 0, 120, 363905, 76084,150,4692.066099
33650, 0, 120, 364443, 77502,120,4694.198202
33651, 0, 120, 363729, 76061,90,4695.009803
33652, 0, 120, 364911, 77245,90,4698.817907
33653, 0, 120, 363587, 76108,120,4704.116614
33654, 0, 120, 365064, 77280,90,4704.905915
33655, 0, 120, 363667, 75985,60,4705.793516
33656, 0, 120, 364997, 77026,30,4706.945117
33657, 0, 120, 363726, 76080,30,4707.808518
33658, 0, 120, 364991, 76884,0,4708.844319
33659, 0, 120, 363596, 76462,30,4719.018431
33660, 0, 120, 364774, 76825,30,4720.475933
33661, 0, 120, 363671, 76806,0,4721.584534
33662, 0, 120, 364644, 76729,0,4725.060838
33663, 0, 120, 363739, 76798,0,4730.969345
33664, 0, 120, 364588, 76396,0,4733.472248
33665, 0, 120, 364097, 76898,30,4742.527159
33666, 0, 120, 364489, 76411,120,4759.587279
33667, 0, 120, 364476, 76845,180,4771.905794
33668, 0, 120, 364204, 76183,180,4774.423497
33669, 0, 120, 364524, 76864,210,4780.350804
33670, 0, 120, 364194, 75964,210,4787.825913
33671, 0, 120, 364416, 77258,210,4789.955315
33672, 0, 120, 363959, 76132,210,4794.36682
33673, 0, 120, 364490, 77409,300,4809.951739
33674, 0, 120, 363819, 76179,300,4814.747144
33675, 0, 120, 364567, 77450,300,4816.596547
33676, 0, 120, 363703, 75933,270,4817.469748
33677, 0, 120, 364838, 77332,240,4818.867949
33678, 0, 120, 363644, 76064,240,4820.270551
33679, 0, 120, 365110, 77142,210,4822.957354
33680, 0, 120, 363672, 76050,210,4824.339656
33681, 0, 120, 365028, 77103,180,4826.014658
33682, 0, 120, 363765, 76040,150,4827.420059
33683, 0, 120, 364917, 76948,150,4828.726561
33684, 0, 120, 363503, 76496,120,4830.202863
33685, 0, 120, 364726, 76726,270,4855.831993
33686, 0, 120, 363577, 76923,270,4857.855895
33687, 0, 120, 364606, 76767,240,4858.922997
33688, 0, 120, 363721, 76800,270,4865.865305
33689, 0, 120, 364461, 76485,240,4866.992306
33690, 0, 120, 364061, 76885,240,4868.650408
33691, 0, 120, 364482, 76319,210,4869.90511
33692, 0, 120, 364379, 76936,180,4871.559912
33693, 0, 120, 364117, 76190,360,4899.071944
33694, 0, 120, 364613, 76854,360,4900.547946
33695, 0, 120, 364070, 76107,330,4903.79815
33696, 0, 120, 364337, 77368,330,4904.02425
33697, 0, 120, 363963, 76053,300,4904.26425
33698, 0, 120, 364364, 77545,270,4904.48355
33699, 0, 120, 363696, 76145,240,4904.701651
33700, 0, 120, 364607, 77409,210,4904.918151
33701, 0, 120, 363699, 75998,180,4905.136651
33702, 0, 120, 364848, 77304,150,4905.575552
33703, 0, 120, 363831, 76028,120,4905.799952
33704, 0, 120, 365086, 77202,90,4906.017652
33705, 0, 120, 363610, 76044,60,4906.232553
33706, 0, 120, 365151, 77026,30,4906.507753
33707, 0, 120, 363691, 76040,0,4906.725653
33708, 0, 120, 364831, 76954,0,4908.145055
33709, 0, 120, 363702, 76535,0,4912.019959
33710, 0, 120, 364699, 76726,0,4916.619965
33711, 0, 120, 363519, 76948,0,4920.214369
33712, 0, 120, 364731, 76664,0,4924.046174
33713, 0, 120, 363670, 76766,0,4928.038678
33714, 0, 120, 364372, 76540,0,4932.468784
33715, 0, 120, 364294, 76862,0,4936.171688
33716, 0, 120, 364387, 76254,0,4940.028692
33717, 0, 120, 364364, 77007,0,4944.024297
33718, 0, 120, 364335, 76165,0,4948.154302
33719, 0, 120, 364530, 76820,0,4952.133907
33720, 0, 120, 364004, 76191,0,4956.069611
33721, 0, 120, 364535, 77300,0,4960.041216
33722, 0, 120, 363900, 76019,0,4964.164321
33723, 0, 120, 364308, 77628,0,4968.428926
33724, 0, 120, 363868, 76067,0,4972.05953
33725, 0, 120, 364592, 77325,0,4976.275035
33726, 0, 120, 363527, 76090,0,4980.50734
33727, 0, 120, 365002, 77293,0,4984.440045
33728, 0, 120, 363697, 75907,0,4988.102749
33729, 0, 120, 365065, 77283,0,4992.154554
33730, 0, 120, 363654, 75965,0,4996.244659
33731, 0, 120, 365066, 76885,0,5000.259464
33732, 0, 120, 363600, 76206,0,5004.275868
33733, 0, 120, 364908, 76948,0,5008.192873
33734, 0, 120, 363629, 76469,0,5012.116578
33735, 0, 120, 364592, 76895,0,5016.369083
33736, 0, 120, 363628, 76937,0,5020.541288
33737, 0, 120, 364660, 76571,0,5024.176692
33738, 0, 120, 363650, 76952,0,5028.085497
33739, 0, 120, 364525, 76439,0,5032.172701
33740, 0, 120, 364257, 76800,0,5036.281106
33741, 0, 120, 364349, 76453,0,5040.163811
33742, 0, 120, 364452, 76941,0,5044.204716
33743, 0, 120, 364246, 76142,0,5048.07942
33744, 0, 120, 364419, 77017,0,5052.110325
33745, 0, 120, 364115, 76089,0,5056.01973
33746, 0, 120, 364523, 77260,0,5060.099534
33747, 0, 120, 363795, 76140,0,5064.023539
33748, 0, 120, 364360, 77518,0,5068.203844
33749, 0, 120, 363762, 76092,0,5072.170649
33750, 0, 120, 364481, 77488,0,5076.114653
33751, 0, 120, 363622, 76049,0,5080.208958
33752, 0, 120, 364961, 77193,0,5084.155163
33753, 0, 120, 363564, 76076,0,5088.174068
33754, 0, 120, 365130, 77203,0,5092.233472
33755, 0, 120, 363672, 75948,0,5096.036077
33756, 0, 120, 364892, 77019,0,5100.372282
33757, 0, 120, 363666, 76122,0,5104.319087
33758, 0, 120, 364966, 76829,0,5108.092991
33759, 0, 120, 363506, 76634,0,5112.184296
33760, 0, 120, 364633, 76795,0,5116.174901
33761, 0, 120, 363595, 76877,0,5120.170805
33762, 0, 120, 364524, 76702,0,5124.21891
33763, 0, 120, 363714, 76824,0,5128.203715
33764, 0, 120, 364471, 76364,0,5132.21112
33765, 0, 120, 364145, 76871,0,5136.117924
33766, 0, 120, 364397, 76307,0,5140.178029
33767, 0, 120, 364444, 76856,0,5144.139634
33768, 0, 120, 364174, 76206,0,5148.130538
33769, 0, 120, 364576, 77011,0,5153.701145
33770, 0, 120, 364144, 76044,0,5158.580351
33771, 0, 120, 364441, 77403,30,5167.415261
33772, 0, 120, 363915, 76149,0,5167.684162
33773, 0, 120, 364411, 77462,0,5168.093062
33774, 0, 120, 363754, 76164,0,5173.538269
33775, 0, 120, 364608, 77407,0,5178.434474
33776, 0, 120, 363669, 75937,30,5186.963084
33777, 0, 120, 364943, 77280,60,5193.158692
33778, 0, 120, 363713, 76046,90,5200.3593
33779, 0, 120, 365205, 77086,210,5221.580425
33780, 0, 120, 363640, 76029,180,5222.544726
33781, 0, 120, 365008, 76982,150,5223.554128
33782, 0, 120, 363678, 76066,150,5226.080531
33783, 0, 120, 364867, 76956,150,5231.742037
33784, 0, 120, 363598, 76633,150,5234.915341
33785, 0, 120, 364690, 76673,150,5235.940542
33786, 0, 120, 363546, 76960,120,5236.990944
33787, 0, 120, 364523, 76708,150,5244.358852
33788, 0, 120, 363784, 76747,120,5245.367253
33789, 0, 120, 364469, 76464,90,5246.329055
33790, 0, 120, 364226, 76885,60,5247.406656
33791, 0, 120, 364426, 76268,60,5248.553057
33792, 0, 120, 364401, 76978,120,5260.192071
33793, 0, 120, 364122, 76153,180,5274.145487
33794, 0, 120, 364568, 76915,180,5277.067291
33795, 0, 120, 364058, 76124,150,5277.773692
33796, 0, 120, 364418, 77410,120,5278.988393
33797, 0, 120, 363925, 76028,180,5288.133104
33798, 0, 120, 364352, 77520,150,5290.400207
33799, 0, 120, 363675, 76156,150,5292.737609
33800, 0, 120, 364714, 77368,120,5294.951412
33801, 0, 120, 363634, 76053,120,5297.222015
33802, 0, 120, 364894, 77304,90,5298.196716
33803, 0, 120, 363755, 76005,150,5309.203029
33804, 0, 120, 365061, 77172,180,5316.443737
33805, 0, 120, 363577, 76109,150,5317.746739
33806, 0, 120, 365120, 76978,120,5319.505441
33807, 0, 120, 363608, 76147,120,5323.764546
33808, 0, 120, 364775, 76985,120,5325.369948
33809, 0, 120, 363741, 76591,90,5326.199049
33810, 0, 120, 364646, 76718,60,5327.34765
33811, 0, 120, 363458, 76931,60,5328.292151
33812, 0, 120, 364662, 76583,30,5329.245753
33813, 0, 120, 363716, 76754,0,5330.305554
33814, 0, 120, 364396, 76479,150,5353.678381
33815, 0, 120, 364413, 76838,120,5354.753683
33816, 0, 120, 364332, 76202,90,5355.736484
33817, 0, 120, 364328, 77001,90,5357.989987
33818, 0, 120, 364280, 76111,90,5361.919991
33819, 0, 120, 364489, 76942,60,5362.956092
33820, 0, 120, 363957, 76166,60,5366.063196
33821, 0, 120, 364587, 77392,120,5377.147209
33822, 0, 120, 363819, 75978,180,5390.955926
33823, 0, 120, 364350, 77627,180,5392.170627
33824, 0, 120, 363793, 76083,150,5393.588829
33825, 0, 120, 364612, 77281,150,5396.178632
33826, 0, 120, 363595, 76066,120,5396.398732
33827, 0, 120, 365118, 77228,90,5396.639832
33828, 0, 120, 363707, 75930,60,5396.859633
33829, 0, 120, 365053, 77230,30,5397.091633
33830, 0, 120, 363779, 75993,0,5397.359733
33831, 0, 120, 365061, 76858,0,5400.188036
33832, 0, 120, 363638, 76295,0,5404.023641
33833, 0, 120, 364924, 76905,0,5407.953446
33834, 0, 120, 363626, 76565,0,5412.124151
33835, 0, 120, 364551, 76847,0,5416.102355
33836, 0, 120, 363674, 76872,0,5420.04886
33837, 0, 120, 364565, 76526,0,5424.072365
33838, 0, 120, 363694, 76936,0,5428.005969
33839, 0, 120, 364455, 76379,0,5432.038474
33840, 0, 120, 364356, 76731,0,5436.088179
33841, 0, 120, 364338, 76375,0,5440.174184
33842, 0, 120, 364456, 76949,0,5444.239589
33843, 0, 120, 364178, 76041,0,5448.446594
33844, 0, 120, 364406, 77113,0,5452.302798
33845, 0, 120, 364021, 76050,0,5456.163603
33846, 0, 120, 364520, 77321,0,5460.171207
33847, 0, 120, 363782, 76190,0,5464.176012
33848, 0, 120, 364400, 77485,0,5468.194217
33849, 0, 120, 363753, 76040,0,5472.190222
33850, 0, 120, 364515, 77485,0,5476.241326
33851, 0, 120, 363656, 76017,0,5480.382131
33852, 0, 120, 365095, 77154,0,5484.194936
33853, 0, 120, 363625, 76111,0,5488.278341
33854, 0, 120, 365090, 77180,0,5492.249145
33855, 0, 120, 363689, 75933,0,5496.09805
33856, 0, 120, 364888, 77045,0,5500.110155
33857, 0, 120, 363688, 76182,0,5504.112559
33858, 0, 120, 364899, 76889,0,5508.051964
33859, 0, 120, 363529, 76796,0,5512.160369
33860, 0, 120, 364636, 76728,0,5516.208674
33861, 0, 120, 363573, 76924,0,5520.259278
33862, 0, 120, 364467, 76663,0,5524.246683
33863, 0, 120, 363782, 76826,0,5528.195688
33864, 0, 120, 364467, 76405,0,5532.212793
33865, 0, 120, 364239, 76877,0,5536.202797
33866, 0, 120, 364326, 76277,0,5540.211502
33867, 0, 120, 364458, 76841,0,5544.197907
33868, 0, 120, 364025, 76111,0,5548.173811
33869, 0, 120, 364497, 77043,0,5552.236416
33870, 0, 120, 364014, 76008,0,5556.167321
33871, 0, 120, 364451, 77421,0,5560.196226
33872, 0, 120, 363807, 76121,0,5564.19703
33873, 0, 120, 364426, 77474,0,5568.090935
33874, 0, 120, 363619, 76162,0,5572.15974
33875, 0, 120, 364644, 77389,0,5576.056944
33876, 0, 120, 363723, 75957,0,5580.037549
33877, 0, 120, 365046, 77226,0,5584.028554
33878, 0, 120, 363695, 76026,0,5588.045559
33879, 0, 120, 365105, 77069,0,5592.063763
33880, 0, 120, 363563, 76007,0,5596.052068
33881, 0, 120, 365002, 76995,0,5600.261073
33882, 0, 120, 363649, 76196,0,5604.201978
33883, 0, 120, 364780, 76870,0,5608.145182
33884, 0, 120, 363587, 76723,0,5612.145987
33885, 0, 120, 364664, 76651,0,5616.269792
33886, 0, 120, 363541, 76967,0,5620.288697
33887, 0, 120, 364491, 76663,0,5624.194801
33888, 0, 120, 363924, 76714,0,5628.189306
33889, 0, 120, 364416, 76414,0,5632.243011
33890, 0, 120, 364344, 76801,0,5636.192515
33891, 0, 120, 364376, 76183,0,5640.16732
33892, 0, 120, 364376, 76993,0,5644.077925
33893, 0, 120, 364077, 76156,0,5648.036729
33894, 0, 120, 364529, 76986,0,5652.099534
33895, 0, 120, 363947, 76135,0,5656.064839
33896, 0, 120, 364466, 77496,0,5660.131944
33897, 0, 120, 363886, 76006,0,5664.113548
33898, 0, 120, 364354, 77531,0,5668.148753
33899, 0, 120, 363631, 76161,0,5672.079558
33900, 0, 120, 364711, 77284,0,5676.192063
33901, 0, 120, 363605, 76056,0,5680.092567
33902, 0, 120, 364966, 77220,0,5684.076972
33903, 0, 120, 363748, 75963,0,5688.560277
33904, 0, 120, 365033, 77169,0,5694.028884
33905, 0, 120, 363543, 76071,0,5698.306889
33906, 0, 120, 365043, 76914,30,5707.077999
33907, 0, 120, 363607, 76343,0,5707.3003
33908, 0, 120, 364712, 76895,0,5708.682301
33909, 0, 120, 363687, 76702,30,5717.697012
33910, 0, 120, 364631, 76757,30,5722.301317
33911, 0, 120, 363478, 76957,30,5726.633322
33912, 0, 120, 364628, 76592,90,5738.244336
33913, 0, 120, 363849, 76812,210,5758.48136
33914, 0, 120, 364293, 76398,180,5759.093561
33915, 0, 120, 364491, 76746,180,5760.901763
33916, 0, 120, 364297, 76235,150,5761.577564
33917, 0, 120, 364332, 76976,120,5762.248764
33918, 0, 120, 364248, 76053,120,5763.946466
33919, 0, 120, 364465, 77086,120,5768.976672
33920, 0, 120, 363844, 76130,90,5770.508774
33921, 0, 120, 364604, 77422,60,5771.327375
33922, 0, 120, 363770, 76046,60,5772.257476
33923, 0, 120, 364278, 77542,30,5772.958777
33924, 0, 120, 363759, 76108,0,5773.743278
33925, 0, 120, 364675, 77238,30,5782.048088
33926, 0, 120, 363579, 76114,0,5782.843089
33927, 0, 120, 365225, 77122,30,5790.057297
33928, 0, 120, 363716, 75912,180,5812.492324
33929, 0, 120, 364994, 77169,150,5813.550125
33930, 0, 120, 363747, 75966,180,5822.004735
33931, 0, 120, 364960, 76883,150,5822.963736
33932, 0, 120, 363593, 76363,120,5823.765037
33933, 0, 120, 364884, 76846,120,5824.765438
33934, 0, 120, 363586, 76669,90,5825.77974
33935, 0, 120, 364554, 76760,90,5829.176544
33936, 0, 120, 363695, 76918,60,5830.127645
33937, 0, 120, 364596, 76494,30,5831.286446
33938, 0, 120, 363810, 76913,30,5833.694949
33939, 0, 120, 364444, 76370,60,5840.939358
33940, 0, 120, 364432, 76699,60,5846.527564
33941, 0, 120, 364261, 76313,30,5847.504065
33942, 0, 120, 364409, 76965,30,5849.610768
33943, 0, 120, 364104, 76027,0,5850.569269
33944, 0, 120, 364420, 77228,30,5857.762877
33945, 0, 120, 364012, 76088,0,5858.780379
33946, 0, 120, 364529, 77380,0,5861.011581
33947, 0, 120, 363707, 76168,30,5868.35809
33948, 0, 120, 364435, 77487,0,5870.025292
33949, 0, 120, 363730, 76068,0,5872.969095
33950, 0, 120, 364664, 77416,90,5889.487715
33951, 0, 120, 363685, 76006,60,5890.523516
33952, 0, 120, 365124, 77082,120,5901.707929
33953, 0, 120, 363611, 76096,90,5902.863431
33954, 0, 120, 365086, 77092,90,5906.602535
33955, 0, 120, 363634, 76007,60,5907.602236
33956, 0, 120, 364845, 77008,60,5910.47044
33957, 0, 120, 363618, 76340,30,5911.660141
33958, 0, 120, 364863, 76812,30,5912.890843
33959, 0, 120, 363507, 76861,0,5914.187344
33960, 0, 120, 364636, 76651,180,5941.399876
33961, 0, 120, 363632, 76842,150,5942.442478
33962, 0, 120, 364433, 76639,120,5943.536679
33963, 0, 120, 363963, 76861,120,5946.335682
33964, 0, 120, 364453, 76291,90,5946.555582
33965, 0, 120, 364296, 76854,60,5946.775283
33966, 0, 120, 364342, 76259,30,5947.027183
33967, 0, 120, 364400, 76912,0,5947.262483
33968, 0, 120, 363994, 76113,0,5948.551585
33969, 0, 120, 364522, 77155,0,5952.033589
33970, 0, 120, 363985, 76072,0,5956.060394
33971, 0, 120, 364437, 77533,0,5960.118298
33972, 0, 120, 363791, 76090,0,5963.990503
33973, 0, 120, 364448, 77409,0,5968.306608
33974, 0, 120, 363664, 76131,0,5971.959112
33975, 0, 120, 364825, 77335,0,5975.985017
33976, 0, 120, 363643, 75928,0,5980.155422
33977, 0, 120, 365010, 77160,0,5984.417327
33978, 0, 120, 363764, 76026,0,5988.038031
33979, 0, 120, 365135, 77022,0,5992.028936
33980, 0, 120, 363608, 76076,0,5995.987841
33981, 0, 120, 364940, 76988,0,6000.402446
33982, 0, 120, 363657, 76294,0,6004.12135
33983, 0, 120, 364799, 76887,0,6008.136355
33984, 0, 120, 363602, 76803,0,6012.35526
33985, 0, 120, 364661, 76617,0,6016.113265
33986, 0, 120, 363584, 76947,0,6020.100269
33987, 0, 120, 364558, 76633,0,6024.059574
33988, 0, 120, 363968, 76772,0,6028.049179
33989, 0, 120, 364361, 76383,0,6032.164784
33990, 0, 120, 364424, 76838,0,6036.096488
33991, 0, 120, 364324, 76155,0,6040.036093
33992, 0, 120, 364408, 76973,0,6044.043598
33993, 0, 120, 364061, 76142,0,6048.291503
33994, 0, 120, 364525, 77101,0,6052.153207
33995, 0, 120, 363915, 76117,0,6056.047712
33996, 0, 120, 364448, 77579,0,6060.019417
33997, 0, 120, 363808, 76013,0,6065.075922
33998, 0, 120, 364393, 77553,0,6068.571427
33999, 0, 120, 363551, 76163,0,6072.049831
34000, 0, 120, 364866, 77241,0,6076.116136
34001, 0, 120, 363642, 76039,0,6080.13174
34002, 0, 120, 365039, 77161,0,6084.562646
34003, 0, 120, 363861, 75953,0,6088.06015
34004, 0, 120, 364989, 77083,0,6092.105554
34005, 0, 120, 363531, 76107,0,6096.061659
34006, 0, 120, 364957, 76890,0,6100.357664
34007, 0, 120, 363541, 76505,0,6104.108669
34008, 0, 120, 364727, 76895,0,6107.955373
34009, 0, 120, 363629, 76770,0,6112.291278
34010, 0, 120, 364564, 76700,0,6116.131683
34011, 0, 120, 363599, 76973,0,6120.104888
34012, 0, 120, 364576, 76490,0,6123.938592
34013, 0, 120, 363959, 76871,0,6127.969697
34014, 0, 120, 364275, 76369,0,6131.994302
34015, 0, 120, 364536, 76769,0,6136.121306
34016, 0, 120, 364217, 76171,0,6139.995411
34017, 0, 120, 364269, 77004,0,6143.998816
34018, 0, 120, 364171, 76065,0,6148.165121
34019, 0, 120, 364416, 77171,0,6152.082425
34020, 0, 120, 363818, 76145,0,6156.04763
34021, 0, 120, 364682, 77501,0,6159.978435
34022, 0, 120, 363745, 76043,0,6164.15464
34023, 0, 120, 364345, 77511,0,6168.032444
34024, 0, 120, 363751, 76064,0,6171.954549
34025, 0, 120, 364785, 77265,0,6175.986254
34026, 0, 120, 363533, 76050,0,6180.108558
34027, 0, 120, 365174, 77081,0,6184.348563
34028, 0, 120, 363700, 75903,0,6188.059268
34029, 0, 120, 364943, 77117,0,6192.042673
34030, 0, 120, 363679, 76058,0,6196.113477
34031, 0, 120, 364922, 76848,0,6200.093982
34032, 0, 120, 363582, 76572,0,6204.082187
34033, 0, 120, 364882, 76788,0,6208.038191
34034, 0, 120, 363560, 76719,0,6212.006296
34035, 0, 120, 364517, 76769,0,6216.070401
34036, 0, 120, 363717, 76941,0,6220.066306
34037, 0, 120, 364488, 76389,0,6224.09251
34038, 0, 120, 363983, 76925,0,6230.916719
34039, 0, 120, 364466, 76288,30,6237.179726
34040, 0, 120, 364472, 76650,30,6239.846429
34041, 0, 120, 364185, 76305,30,6246.803137
34042, 0, 120, 364506, 76951,0,6247.189638
34043, 0, 120, 364081, 75969,0,6249.10784
34044, 0, 120, 364407, 77324,30,6256.580649
34045, 0, 120, 363989, 76047,0,6259.090752
34046, 0, 120, 364522, 77386,30,6263.843557
34047, 0, 120, 363644, 76174,30,6268.527663
34048, 0, 120, 364490, 77435,0,6268.825863
34049, 0, 120, 363677, 75973,180,6296.423096
34050, 0, 120, 364720, 77383,210,6306.325108
34051, 0, 120, 363626, 76000,210,6308.31691
34052, 0, 120, 365135, 77026,180,6308.816011
34053, 0, 120, 363593, 76090,150,6309.445911
34054, 0, 120, 365050, 77022,150,6313.532816
34055, 0, 120, 363642, 76040,150,6319.659523
34056, 0, 120, 364719, 77045,150,6320.469424
34057, 0, 120, 363629, 76459,120,6321.544026
34058, 0, 120, 364837, 76728,90,6323.196028
34059, 0, 120, 363517, 76917,90,6324.394429
34060, 0, 120, 364594, 76663,60,6325.39783
34061, 0, 120, 363674, 76829,90,6334.621241
34062, 0, 120, 364401, 76580,90,6336.328243
34063, 0, 120, 364101, 76905,60,6337.457144
34064, 0, 120, 364389, 76223,30,6338.502146
34065, 0, 120, 364390, 76862,0,6339.572147
34066, 0, 120, 364257, 76195,30,6347.083656
34067, 0, 120, 364415, 76866,30,6349.147058
34068, 0, 120, 363928, 76134,30,6353.970464
34069, 0, 120, 364510, 77295,180,6377.227992
34070, 0, 120, 363968, 76107,150,6378.282593
34071, 0, 120, 364452, 77552,120,6379.484094
34072, 0, 120, 363709, 76105,120,6380.641696
34073, 0, 120, 364525, 77354,150,6391.435708
34074, 0, 120, 363600, 76106,150,6392.73371
34075, 0, 120, 364870, 77311,120,6395.116613
34076, 0, 120, 363671, 75889,120,6397.533116
34077, 0, 120, 365084, 77112,90,6399.593318
34078, 0, 120, 363734, 75970,90,6401.861121
34079, 0, 120, 365052, 76979,60,6402.821622
34080, 0, 120, 363494, 76133,60,6405.003124
34081, 0, 120, 364884, 76908,30,6406.033926
34082, 0, 120, 363692, 76445,0,6407.062527
34083, 0, 120, 364733, 76832,0,6409.98553
34084, 0, 120, 363534, 76868,90,6425.270048
34085, 0, 120, 364617, 76536,90,6431.355455
34086, 0, 120, 363552, 76946,120,6436.170561
34087, 0, 120, 364458, 76558,90,6437.938363
34088, 0, 120, 364110, 76779,60,6439.168765
34089, 0, 120, 364356, 76335,90,6447.046674
34090, 0, 120, 364525, 76805,210,6464.090694
34091, 0, 120, 364293, 76139,180,6465.331496
34092, 0, 120, 364377, 76984,150,6467.573698
34093, 0, 120, 364071, 76132,150,6470.046701
34094, 0, 120, 364517, 77236,150,6475.451308
34095, 0, 120, 363889, 76068,150,6476.480609
34096, 0, 120, 364438, 77541,120,6477.65131
34097, 0, 120, 363698, 76013,90,6478.610811
34098, 0, 120, 364427, 77482,60,6479.686613
34099, 0, 120, 363584, 76135,60,6480.577514
34100, 0, 120, 364966, 77217,30,6481.814015
34101, 0, 120, 363597, 76106,0,6482.853516
34102, 0, 120, 365041, 77138,0,6484.866619
34103, 0, 120, 363739, 75915,150,6511.70615
34104, 0, 120, 365026, 77044,150,6514.128953
34105, 0, 120, 363492, 76127,120,6515.282055
34106, 0, 120, 364941, 76855,120,6516.795956
34107, 0, 120, 363591, 76610,90,6517.884658
34108, 0, 120, 364646, 76861,60,6518.975159
34109, 0, 120, 363665, 76781,60,6522.942964
34110, 0, 120, 364552, 76693,60,6523.804365
34111, 0, 120, 363541, 77010,30,6524.098765
34112, 0, 120, 364488, 76417,0,6524.471066
34113, 0, 120, 364116, 76866,0,6528.815771
34114, 0, 120, 364235, 76374,0,6533.550576
34115, 0, 120, 364582, 76718,0,6537.710081
34116, 0, 120, 364200, 76205,0,6539.974984
34117, 0, 120, 364295, 77041,0,6544.068389
34118, 0, 120, 364091, 76077,0,6547.987093
34119, 0, 120, 364384, 77316,0,6552.117798
34120, 0, 120, 363773, 76142,0,6556.147303
34121, 0, 120, 364653, 77460,0,6560.053008
34122, 0, 120, 363657, 76057,0,6563.914112
34123, 0, 120, 364402, 77528,0,6568.165517
34124, 0, 120, 363728, 76100,0,6572.448222
34125, 0, 120, 364886, 77231,0,6576.013827
34126, 0, 120, 363522, 76025,0,6580.026731
34127, 0, 120, 365211, 77054,0,6584.209636
34128, 0, 120, 363694, 75903,0,6588.053741
34129, 0, 120, 364902, 77046,0,6591.961645
34130, 0, 120, 363668, 76063,0,6596.05745
34131, 0, 120, 364861, 76852,0,6600.185055
34132, 0, 120, 363549, 76651,0,6604.04766
34133, 0, 120, 364901, 76778,0,6608.394365
34134, 0, 120, 363569, 76736,0,6612.128069
34135, 0, 120, 364429, 76680,0,6616.189274
34136, 0, 120, 363785, 76866,0,6620.245979
34137, 0, 120, 364395, 76385,0,6624.156883
34138, 0, 120, 364125, 76961,0,6627.947688
34139, 0, 120, 364436, 76270,0,6632.066793
34140, 0, 120, 364523, 76658,0,6636.244998
34141, 0, 120, 364194, 76180,0,6640.001902
34142, 0, 120, 364521, 76925,0,6643.838107
34143, 0, 120, 364025, 75958,0,6647.990412
34144, 0, 120, 364386, 77480,0,6652.354917
34145, 0, 120, 363923, 76081,0,6656.159821
34146, 0, 120, 364513, 77470,0,6659.996926
34147, 0, 120, 363620, 76174,0,6663.90393
34148, 0, 120, 364609, 77405,0,6668.155335
34149, 0, 120, 363648, 75992,0,6672.28714
34150, 0, 120, 364900, 77374,0,6676.024845
34151, 0, 120, 363693, 75983,0,6679.882649
34152, 0, 120, 365146, 76949,0,6684.384555
34153, 0, 120, 363651, 76078,0,6688.208059
34154, 0, 120, 364998, 76967,0,6692.113464
34155, 0, 120, 363594, 76021,0,6695.968068
34156, 0, 120, 364699, 76990,0,6700.009373
34157, 0, 120, 363574, 76638,0,6704.155078
34158, 0, 120, 364743, 76701,0,6708.173083
34159, 0, 120, 363486, 76952,0,6712.030187
34160, 0, 120, 364607, 76620,0,6716.054092
34161, 0, 120, 363701, 76820,0,6720.151797
34162, 0, 120, 364368, 76556,0,6724.062002
34163, 0, 120, 364145, 76889,0,6728.006306
34164, 0, 120, 364331, 76168,0,6732.239111
34165, 0, 120, 364414, 76870,0,6736.135516
34166, 0, 120, 364180, 76148,0,6740.172921
34167, 0, 120, 364359, 76943,0,6744.247025
34168, 0, 120, 363947, 76148,0,6748.04533
34169, 0, 120, 364416, 77413,0,6752.024535
34170, 0, 120, 363855, 76101,0,6756.106039
34171, 0, 120, 364467, 77602,0,6760.195144
34172, 0, 120, 363742, 76039,0,6764.039549
34173, 0, 120, 364523, 77370,0,6768.027454
34174, 0, 120, 363490, 76166,0,6774.742861
34175, 0, 120, 364978, 77287,30,6780.569168
34176, 0, 120, 363640, 75956,0,6782.28917
34177, 0, 120, 364978, 77102,30,6791.744082
34178, 0, 120, 363723, 75965,30,6792.025482
34179, 0, 120, 364959, 76952,0,6792.254682
34180, 0, 120, 363457, 76204,0,6797.852189
34181, 0, 120, 364818, 76914,0,6803.139795
34182, 0, 120, 363589, 76640,30,6808.568401
34183, 0, 120, 364660, 76815,60,6817.916612
34184, 0, 120, 363581, 76856,240,6845.467045
34185, 0, 120, 364580, 76528,240,6847.989648
34186, 0, 120, 363660, 76973,210,6848.549649
34187, 0, 120, 364446, 76441,180,6850.593451
34188, 0, 120, 364211, 76805,150,6851.297352
34189, 0, 120, 364238, 76303,150,6852.108553
34190, 0, 120, 364532, 76802,120,6853.884455
34191, 0, 120, 364220, 76043,90,6854.531156
34192, 0, 120, 364323, 77034,90,6857.79976
34193, 0, 120, 364049, 76051,90,6862.090665
34194, 0, 120, 364446, 77367,60,6862.914666
34195, 0, 120, 363764, 76151,60,6864.093267
34196, 0, 120, 364525, 77495,30,6864.833568
34197, 0, 120, 363697, 75957,0,6865.636169
34198, 0, 120, 364539, 77386,0,6868.720573
34199, 0, 120, 363663, 76106,30,6877.189583
34200, 0, 120, 364978, 77178,0,6878.287884
34201, 0, 120, 363620, 76027,0,6881.350487
34202, 0, 120, 365162, 77052,210,6914.212826
34203, 0, 120, 363700, 75867,180,6915.320828
34204, 0, 120, 364898, 77013,180,6916.652729
34205, 0, 120, 363545, 76199,150,6917.68493
34206, 0, 120, 364776, 76760,120,6918.926132
34207, 0, 120, 363542, 76824,150,6927.597942
34208, 0, 120, 364650, 76819,150,6930.044345
34209, 0, 120, 363592, 76725,120,6931.306047
34210, 0, 120, 364455, 76631,120,6933.623849
34211, 0, 120, 363731, 76969,90,6934.726551
34212, 0, 120, 364509, 76291,60,6935.631852
34213, 0, 120, 364176, 76934,60,6937.845154
34214, 0, 120, 364203, 76269,30,6938.876155
34215, 0, 120, 364544, 76737,30,6942.251659
34216, 0, 120, 364074, 76161,90,6954.479974
34217, 0, 120, 364338, 77051,90,6956.748477
34218, 0, 120, 364058, 75950,60,6957.847778
34219, 0, 120, 364359, 77486,30,6958.924579
34220, 0, 120, 363752, 76208,60,6966.053388
34221, 0, 120, 364494, 77393,30,6966.835889
34222, 0, 120, 363574, 76108,30,6967.83939
34223, 0, 120, 364537, 77445,0,6969.862592
34224, 0, 120, 363688, 75955,0,6974.155697
34225, 0, 120, 364956, 77270,0,6976.965601
34226, 0, 120, 363562, 76055,150,7003.446832
34227, 0, 120, 365110, 76951,150,7004.234133
34228, 0, 120, 363614, 76047,120,7004.924634
34229, 0, 120, 364783, 77033,90,7006.880936
34230, 0, 120, 363659, 76175,120,7013.027243
34231, 0, 120, 364692, 76894,90,7013.572844
34232, 0, 120, 363493, 76861,60,7014.313445
34233, 0, 120, 364797, 76743,30,7015.212946
34234, 0, 120, 363525, 76834,30,7016.087847
34235, 0, 120, 364375, 76630,120,7034.755869
34236, 0, 120, 363871, 76855,180,7045.397681
34237, 0, 120, 364392, 76404,150,7046.600783
34238, 0, 120, 364136, 76975,150,7050.085287
34239, 0, 120, 364397, 76212,120,7050.363587
34240, 0, 120, 364479, 76811,90,7050.625688
34241, 0, 120, 364080, 76154,60,7051.013688
34242, 0, 120, 364530, 77042,30,7051.397088
34243, 0, 120, 363939, 76005,30,7051.805589
34244, 0, 120, 364254, 77520,0,7052.147689
34245, 0, 120, 363914, 76124,0,7056.019994
34246, 0, 120, 364428, 77410,0,7059.983599
34247, 0, 120, 363517, 76111,0,7063.991203
34248, 0, 120, 364763, 77377,0,7068.353909
34249, 0, 120, 363646, 76002,0,7071.933413
34250, 0, 120, 364931, 77286,0,7075.894717
34251, 0, 120, 363743, 75980,0,7079.865422
34252, 0, 120, 365095, 76933,0,7084.003027
34253, 0, 120, 363614, 76018,0,7087.929732
34254, 0, 120, 365006, 76960,0,7092.040737
34255, 0, 120, 363518, 76220,0,7095.966141
34256, 0, 120, 364631, 76946,0,7099.982146
34257, 0, 120, 363649, 76814,0,7104.095751
34258, 0, 120, 364689, 76637,0,7107.942555
34259, 0, 120, 363511, 76869,0,7112.08676
34260, 0, 120, 364596, 76560,0,7116.099665
34261, 0, 120, 363830, 76816,0,7120.05247
34262, 0, 120, 364356, 76531,0,7124.134974
34263, 0, 120, 364351, 76888,0,7128.075279
34264, 0, 120, 364269, 76098,0,7131.948084
34265, 0, 120, 364376, 76914,0,7136.245289
34266, 0, 120, 364181, 76114,0,7140.005693
34267, 0, 120, 364423, 77017,0,7144.043998
34268, 0, 120, 363871, 76168,0,7148.019803
34269, 0, 120, 364395, 77505,0,7152.116108
34270, 0, 120, 363804, 76043,0,7155.968012
34271, 0, 120, 364403, 77576,0,7159.959117
34272, 0, 120, 363673, 75990,0,7163.954722
34273, 0, 120, 364671, 77251,0,7168.084626
34274, 0, 120, 363537, 76164,0,7172.010031
34275, 0, 120, 365057, 77209,0,7176.005736
34276, 0, 120, 363649, 75889,0,7180.060641
34277, 0, 120, 364950, 77084,0,7183.999945
34278, 0, 120, 363692, 76004,0,7188.18695
34279, 0, 120, 364889, 76852,0,7192.098655
34280, 0, 120, 363465, 76421,0,7196.08426
34281, 0, 120, 364746, 76814,0,7200.115364
34282, 0, 120, 363498, 76781,0,7204.064769
34283, 0, 120, 364552, 76835,0,7208.093674
34284, 0, 120, 363564, 76867,0,7212.112878
34285, 0, 120, 364514, 76449,0,7216.176683
34286, 0, 120, 363812, 76962,0,7220.088688
34287, 0, 120, 364341, 76357,0,7224.124893
34288, 0, 120, 364341, 76868,0,7228.058597
34289, 0, 120, 364145, 76277,0,7231.945302
34290, 0, 120, 364511, 76786,0,7236.098307
34291, 0, 120, 364134, 76079,0,7240.000511
34292, 0, 120, 364285, 77184,0,7243.958116
34293, 0, 120, 363897, 76072,0,7248.220321
34294, 0, 120, 364377, 77469,0,7252.179526
34295, 0, 120, 363666, 76200,0,7256.08343
34296, 0, 120, 364514, 77450,0,7260.040735
34297, 0, 120, 363678, 75981,0,7264.17144
34298, 0, 120, 364650, 77417,0,7268.026645
34299, 0, 120, 363674, 76065,0,7271.996149
34300, 0, 120, 365067, 77179,0,7275.875554
34301, 0, 120, 363526, 76033,0,7279.943459
34302, 0, 120, 365036, 77032,0,7284.020864
34303, 0, 120, 363681, 75951,0,7287.864668
34304, 0, 120, 364840, 76947,0,7291.942573
34305, 0, 120, 363548, 76409,0,7295.985778
34306, 0, 120, 364759, 76770,0,7300.153283
34307, 0, 120, 363450, 76876,0,7304.445688
34308, 0, 120, 364644, 76793,0,7308.322092
34309, 0, 120, 363687, 76720,0,7312.554597
34310, 0, 120, 364465, 76543,30,7319.856806
34311, 0, 120, 363940, 76915,0,7323.52741
34312, 0, 120, 364450, 76311,30,7330.037818
34313, 0, 120, 364292, 76979,30,7335.384324
34314, 0, 120, 364209, 76183,0,7335.607224
34315, 0, 120, 364524, 76755,0,7336.158925
34316, 0, 120, 364080, 76136,30,7345.325136
34317, 0, 120, 364426, 77228,0,7346.843238
34318, 0, 120, 363949, 75976,60,7355.855648
34319, 0, 120, 364307, 77546,120,7370.971366
34320, 0, 120, 363737, 76192,270,7394.045894
34321, 0, 120, 364536, 77367,240,7394.874095
34322, 0, 120, 363548, 76028,210,7395.505495
34323, 0, 120, 364711, 77339,270,7404.873706
34324, 0, 120, 363680, 75961,240,7405.951908
34325, 0, 120, 365054, 77287,210,7407.161509
34326, 0, 120, 363534, 76038,210,7408.34401
34327, 0, 120, 365063, 76915,180,7409.385812
34328, 0, 120, 363602, 76079,150,7410.441813
34329, 0, 120, 364738, 76960,120,7411.594714
34330, 0, 120, 363552, 76347,120,7412.706916
34331, 0, 120, 364648, 76853,150,7420.665625
34332, 0, 120, 363391, 76970,120,7421.918527
34333, 0, 120, 364668, 76648,90,7423.467028
34334, 0, 120, 363593, 76875,150,7435.222342
34335, 0, 120, 364352, 76595,300,7459.03007
34336, 0, 120, 364077, 76861,300,7460.027872
34337, 0, 120, 364350, 76397,270,7460.836773
34338, 0, 120, 364276, 76992,240,7461.503273
34339, 0, 120, 364219, 76143,270,7471.047085
34340, 0, 120, 364430, 76891,270,7473.473687
34341, 0, 120, 363913, 76165,270,7476.922792
34342, 0, 120, 364472, 77218,240,7477.676692
34343, 0, 120, 363865, 76063,210,7479.545395
34344, 0, 120, 364256, 77590,210,7481.395097
34345, 0, 120, 363802, 76115,180,7483.481799
34346, 0, 120, 364459, 77384,180,7485.572102
34347, 0, 120, 363470, 76113,150,7486.437703
34348, 0, 120, 364927, 77302,150,7488.462705
34349, 0, 120, 363634, 75987,210,7500.004919
34350, 0, 120, 364930, 77287,180,7500.62722
34351, 0, 120, 363660, 75966,150,7502.266522
34352, 0, 120, 364996, 76980,180,7507.859428
34353, 0, 120, 363522, 76084,150,7508.713929
34354, 0, 120, 364920, 76891,120,7509.72303
34355, 0, 120, 363529, 76402,90,7510.811432
34356, 0, 120, 364564, 76900,90,7512.594434
34357, 0, 120, 363622, 76907,90,7516.638339
34358, 0, 120, 364608, 76608,60,7517.76174
34359, 0, 120, 363517, 76902,30,7518.925541
34360, 0, 120, 364588, 76481,30,7520.470143
34361, 0, 120, 364049, 76786,0,7521.953245
34362, 0, 120, 364347, 76381,150,7547.052374
34363, 0, 120, 364453, 76914,150,7548.651676
34364, 0, 120, 364134, 76051,120,7550.991979
34365, 0, 120, 364393, 76961,150,7557.270187
34366, 0, 120, 364141, 76054,120,7558.343188
34367, 0, 120, 364456, 77186,90,7559.419789
34368, 0, 120, 363790, 76166,90,7560.641391
34369, 0, 120, 364417, 77544,210,7583.227017
34370, 0, 120, 363735, 76054,210,7587.409622
34371, 0, 120, 364391, 77505,210,7588.321323
34372, 0, 120, 363632, 76015,180,7589.514725
34373, 0, 120, 364837, 77214,150,7591.025326
34374, 0, 120, 363561, 76149,150,7592.928929
34375, 0, 120, 365079, 77185,120,7593.148529
34376, 0, 120, 363593, 75914,90,7593.364929
34377, 0, 120, 364928, 77075,60,7593.581329
34378, 0, 120, 363646, 76071,30,7593.79723
34379, 0, 120, 364856, 76863,0,7594.01403
34380, 0, 120, 363443, 76619,0,7596.061132
34381, 0, 120, 364598, 76782,0,7599.886037
34382, 0, 120, 363555, 76841,0,7603.989542
34383, 0, 120, 364409, 76758,0,7608.027147
34384, 0, 120, 363620, 76821,0,7612.345452
34385, 0, 120, 364354, 76393,0,7616.030756
34386, 0, 120, 364008, 77014,0,7619.947761
34387, 0, 120, 364354, 76328,0,7624.061265
34388, 0, 120, 364363, 76920,0,7628.11567
34389, 0, 120, 364060, 76238,0,7632.041075
34390, 0, 120, 364469, 76892,0,7636.03458
34391, 0, 120, 364072, 76087,0,7639.890584
34392, 0, 120, 364275, 77382,0,7643.806089
34393, 0, 120, 363826, 76032,0,7647.784594
34394, 0, 120, 364344, 77509,0,7651.956398
34395, 0, 120, 363586, 76223,0,7655.883003
34396, 0, 120, 364554, 77393,0,7659.780708
34397, 0, 120, 363612, 75960,0,7663.904913
34398, 0, 120, 364791, 77328,0,7668.222618
34399, 0, 120, 363656, 76033,0,7671.784122
34400, 0, 120, 365013, 77130,0,7675.868027
34401, 0, 120, 363460, 76098,0,7679.801031
34402, 0, 120, 364978, 77009,0,7683.968436
34403, 0, 120, 363576, 76048,0,7687.897341
34404, 0, 120, 364760, 76932,0,7692.052446
34405, 0, 120, 363603, 76566,0,7695.93045
34406, 0, 120, 364673, 76717,0,7699.904855
34407, 0, 120, 363415, 76942,0,7703.92606
34408, 0, 120, 364605, 76686,0,7707.963865
34409, 0, 120, 363706, 76744,0,7711.883269
34410, 0, 120, 364384, 76514,0,7716.003674
34411, 0, 120, 364152, 76849,0,7720.051379
34412, 0, 120, 364322, 76187,0,7723.789483
34413, 0, 120, 364332, 76983,0,7727.949688
34414, 0, 120, 364119, 76173,0,7731.829493
34415, 0, 120, 364508, 76852,0,7736.110598
34416, 0, 120, 363924, 76089,0,7739.955403
34417, 0, 120, 364473, 77348,0,7743.929807
34418, 0, 120, 363848, 75969,0,7747.807912
34419, 0, 120, 364340, 77588,0,7752.113617
34420, 0, 120, 363694, 76185,0,7755.952721
34421, 0, 120, 364517, 77305,0,7759.949626
34422, 0, 120, 363540, 76037,0,7763.919631
34423, 0, 120, 364871, 77295,0,7768.011936
34424, 0, 120, 363720, 75932,0,7771.86314
34425, 0, 120, 365064, 77178,0,7775.861145
34426, 0, 120, 363582, 76043,0,7779.92445
34427, 0, 120, 365037, 76949,0,7784.038855
34428, 0, 120, 363594, 76195,0,7788.144059
34429, 0, 120, 364710, 76940,0,7791.947864
34430, 0, 120, 363556, 76498,0,7795.999569
34431, 0, 120, 364573, 76820,0,7800.181574
34432, 0, 120, 363413, 76902,0,7804.047678
34433, 0, 120, 364591, 76565,0,7807.968283
34434, 0, 120, 363643, 76866,0,7811.858388
34435, 0, 120, 364296, 76448,0,7815.979992
34436, 0, 120, 364298, 76749,0,7820.103097
34437, 0, 120, 364240, 76356,0,7823.947602
34438, 0, 120, 364301, 77000,0,7827.831706
34439, 0, 120, 364121, 76096,0,7831.829111
34440, 0, 120, 364379, 77012,0,7836.167816
34441, 0, 120, 363866, 76179,0,7839.912621
34442, 0, 120, 364416, 77341,0,7843.837725
34443, 0, 120, 363715, 76123,0,7847.80673
34444, 0, 120, 364203, 77572,0,7851.962935
34445, 0, 120, 363705, 76093,0,7856.990941
34446, 0, 120, 364460, 77371,30,7864.061949
34447, 0, 120, 363466, 76083,0,7866.721652
34448, 0, 120, 365028, 77192,60,7876.102063
34449, 0, 120, 363618, 76027,30,7876.345364
34450, 0, 120, 364947, 77169,0,7876.591964
34451, 0, 120, 363644, 75965,30,7886.724976
34452, 0, 120, 364875, 76898,30,7888.464178
34453, 0, 120, 363491, 76222,30,7893.840784
34454, 0, 120, 364878, 76854,30,7897.941389
34455, 0, 120, 363463, 76557,180,7923.62932
34456, 0, 120, 364410, 76809,240,7934.988133
34457, 0, 120, 363588, 76875,240,7937.289336
34458, 0, 120, 364495, 76565,270,7946.383647
34459, 0, 120, 363600, 76863,240,7947.231848
34460, 0, 120, 364488, 76439,240,7948.513349
34461, 0, 120, 364229, 76779,210,7949.15575
34462, 0, 120, 364228, 76350,180,7949.957751
34463, 0, 120, 364487, 76923,150,7950.995652
34464, 0, 120, 364074, 76008,150,7952.155653
34465, 0, 120, 364370, 77077,120,7953.235455
34466, 0, 120, 364079, 76050,150,7961.702765
34467, 0, 120, 364411, 77240,120,7962.759366
34468, 0, 120, 363738, 76113,120,7963.775767
34469, 0, 120, 364377, 77517,90,7964.772168
34470, 0, 120, 363641, 76078,60,7966.03997
34471, 0, 120, 364496, 77448,30,7967.083871
34472, 0, 120, 363612, 76010,30,7968.237472
34473, 0, 120, 364954, 77096,0,7969.532474
34474, 0, 120, 363614, 76083,120,7988.186996
34475, 0, 120, 365062, 77144,240,8011.260323
34476, 0, 120, 363571, 75880,240,8012.746525
34477, 0, 120, 364863, 77028,210,8015.478628
34478, 0, 120, 363644, 76150,270,8024.241339
34479, 0, 120, 364825, 76771,240,8027.077142
34480, 0, 120, 363426, 76780,240,8028.258843
34481, 0, 120, 364631, 76706,210,8029.423445
34482, 0, 120, 363544, 76827,180,8031.505047
34483, 0, 120, 364439, 76721,180,8032.436448
34484, 0, 120, 363706, 76827,180,8036.977454
34485, 0, 120, 364325, 76284,150,8038.097155
34486, 0, 120, 364218, 76900,150,8041.851259
34487, 0, 120, 364337, 76278,210,8055.301475
34488, 0, 120, 364415, 76835,210,8057.964478
34489, 0, 120, 363996, 76233,210,8063.202385
34490, 0, 120, 364452, 77006,210,8064.805587
34491, 0, 120, 363951, 76021,180,8065.832288
34492, 0, 120, 364266, 77538,150,8066.294688
34493, 0, 120, 363712, 76116,120,8067.034589
34494, 0, 120, 364334, 77455,120,8067.92459
34495, 0, 120, 363525, 76212,90,8068.611591
34496, 0, 120, 364531, 77363,90,8072.887996
34497, 0, 120, 363609, 75948,60,8073.635097
34498, 0, 120, 364851, 77272,30,8074.536198
34499, 0, 120, 363638, 76024,0,8075.399799
34500, 0, 120, 364988, 77097,0,8076.721601
34501, 0, 120, 363489, 76109,0,8080.957706
34502, 0, 120, 364862, 76966,90,8095.764223
34503, 0, 120, 363593, 76190,120,8105.040934
34504, 0, 120, 364642, 76889,90,8105.924535
34505, 0, 120, 363526, 76723,60,8106.880836
34506, 0, 120, 364589, 76699,60,8107.970338
34507, 0, 120, 363374, 77020,60,8114.409845
34508, 0, 120, 364494, 76602,60,8117.193848
34509, 0, 120, 363754, 76757,30,8119.638551
34510, 0, 120, 364236, 76453,120,8133.772868
34511, 0, 120, 364366, 76824,180,8147.402284
34512, 0, 120, 364306, 76204,180,8148.522386
34513, 0, 120, 364276, 76920,150,8149.559287
34514, 0, 120, 364094, 76137,120,8150.712288
34515, 0, 120, 364433, 76978,120,8152.02909
34516, 0, 120, 363852, 76097,90,8154.339292
34517, 0, 120, 364496, 77488,60,8154.570293
34518, 0, 120, 363755, 75995,30,8154.792993
34519, 0, 120, 364272, 77554,0,8155.055893
34520, 0, 120, 363678, 76121,0,8155.981294
34521, 0, 120, 364641, 77304,0,8159.990699
34522, 0, 120, 363566, 76057,0,8164.029804
34523, 0, 120, 364966, 77207,0,8167.943508
34524, 0, 120, 363661, 75904,0,8171.882913
34525, 0, 120, 364886, 77134,0,8175.866318
34526, 0, 120, 363554, 76002,0,8179.851223
34527, 0, 120, 364939, 76864,0,8183.757027
34528, 0, 120, 363493, 76285,0,8187.798932
34529, 0, 120, 364779, 76893,0,8191.796537
34530, 0, 120, 363592, 76628,0,8195.790741
34531, 0, 120, 364497, 76747,0,8199.789546
34532, 0, 120, 363460, 76970,0,8203.799451
34533, 0, 120, 364542, 76471,0,8207.940156
34534, 0, 120, 363805, 76852,0,8211.965161
34535, 0, 120, 364336, 76449,0,8215.953265
34536, 0, 120, 364359, 76709,0,8219.99037
34537, 0, 120, 364241, 76264,0,8223.986675
34538, 0, 120, 364264, 76917,0,8228.03218
34539, 0, 120, 364093, 75987,0,8232.022284
34540, 0, 120, 364357, 77085,0,8236.036189
34541, 0, 120, 363815, 76121,0,8239.996594
34542, 0, 120, 364438, 77432,0,8244.115999
34543, 0, 120, 363654, 76123,0,8247.924503
34544, 0, 120, 364180, 77535,0,8251.951308
34545, 0, 120, 363660, 76020,0,8255.969513
34546, 0, 120, 364610, 77374,0,8260.089217
34547, 0, 120, 363453, 76060,0,8264.062322
34548, 0, 120, 365074, 77075,0,8268.073727
34549, 0, 120, 363613, 76037,0,8271.995931
34550, 0, 120, 364895, 77171,0,8276.043136
34551, 0, 120, 363642, 75991,0,8280.004341
34552, 0, 120, 364834, 76938,0,8283.986746
34553, 0, 120, 363455, 76403,0,8288.03295
34554, 0, 120, 364821, 76840,0,8292.021955
34555, 0, 120, 363468, 76782,0,8295.98866
34556, 0, 120, 364358, 76779,0,8300.012565
34557, 0, 120, 363554, 76870,0,8304.041569
34558, 0, 120, 364444, 76518,0,8308.279874
34559, 0, 120, 363752, 76862,0,8312.002279
34560, 0, 120, 364411, 76368,0,8315.999883
34561, 0, 120, 364335, 76739,0,8319.989088
34562, 0, 120, 364149, 76308,0,8323.973593
34563, 0, 120, 364425, 76897,0,8327.984998
34564, 0, 120, 363952, 76037,0,8331.982302
34565, 0, 120, 364249, 77191,0,8336.005507
34566, 0, 120, 363955, 76082,0,8339.989212
34567, 0, 120, 364436, 77366,0,8344.064417
34568, 0, 120, 363574, 76115,0,8347.919421
34569, 0, 120, 364464, 77452,0,8352.009626
34570, 0, 120, 363654, 76016,0,8356.020831
34571, 0, 120, 364650, 77395,0,8359.975735
34572, 0, 120, 363609, 75976,0,8363.98004
34573, 0, 120, 365004, 77026,0,8368.008545
34574, 0, 120, 363559, 76034,0,8371.93025
34575, 0, 120, 365041, 77068,0,8376.046154
34576, 0, 120, 363508, 75939,0,8380.019359
34577, 0, 120, 364741, 76996,0,8384.014864
34578, 0, 120, 363619, 76401,0,8388.041569
34579, 0, 120, 364787, 76727,0,8391.961673
34580, 0, 120, 363439, 76863,0,8395.929078
34581, 0, 120, 364572, 76686,0,8400.715284
34582, 0, 120, 363554, 76845,30,8408.914993
34583, 0, 120, 364382, 76632,0,8409.741394
34584, 0, 120, 363942, 76820,0,8414.7034
34585, 0, 120, 364331, 76218,0,8419.354506
34586, 0, 120, 364297, 76835,0,8420.783307
34587, 0, 120, 364195, 76231,30,8427.793416
34588, 0, 120, 364347, 76817,0,8429.810418
34589, 0, 120, 363923, 76169,60,8439.93203
34590, 0, 120, 364417, 77158,270,8475.223772
34591, 0, 120, 363864, 75995,270,8475.994773
34592, 0, 120, 364401, 77585,240,8476.676073
34593, 0, 120, 363730, 76006,210,8478.294775
34594, 0, 120, 364313, 77367,180,8478.966376
34595, 0, 120, 363504, 76218,180,8481.569279
34596, 0, 120, 364688, 77327,150,8482.22098
34597, 0, 120, 363527, 75932,180,8488.550687
34598, 0, 120, 364942, 77248,150,8489.114388
34599, 0, 120, 363699, 76024,120,8489.652489
34600, 0, 120, 364966, 77052,90,8490.43389
34601, 0, 120, 363388, 76107,60,8491.200791
34602, 0, 120, 364811, 76959,60,8492.324092
34603, 0, 120, 363574, 76428,30,8494.185094
34604, 0, 120, 364636, 76917,60,8500.820002
34605, 0, 120, 363506, 76850,30,8501.443703
34606, 0, 120, 364560, 76622,0,8502.083503
34607, 0, 120, 363432, 76995,210,8533.535741
34608, 0, 120, 364446, 76524,210,8536.942445
34609, 0, 120, 363954, 76782,180,8538.041446
34610, 0, 120, 364180, 76402,150,8539.128847
34611, 0, 120, 364442, 76810,210,8550.467761
34612, 0, 120, 364214, 76125,210,8551.669362
34613, 0, 120, 364211, 76952,180,8552.595163
34614, 0, 120, 364056, 76097,150,8553.626164
34615, 0, 120, 364363, 77135,150,8555.784367
34616, 0, 120, 363728, 76098,150,8560.805273
34617, 0, 120, 364411, 77545,120,8563.477176
34618, 0, 120, 363707, 75990,120,8566.49768
34619, 0, 120, 364273, 77455,120,8568.756782
34620, 0, 120, 363604, 76113,90,8570.181584
34621, 0, 120, 364757, 77206,150,8582.929099
34622, 0, 120, 363489, 76000,180,8587.857205
34623, 0, 120, 365017, 77145,150,8589.666207
34624, 0, 120, 363679, 75914,120,8590.729308
34625, 0, 120, 364839, 77113,120,8591.91961
34626, 0, 120, 363514, 76064,90,8593.306111
34627, 0, 120, 364818, 76799,90,8597.492516
34628, 0, 120, 363499, 76497,60,8598.669718
34629, 0, 120, 364670, 76817,60,8600.210719
34630, 0, 120, 363557, 76697,30,8601.445721
34631, 0, 120, 364448, 76681,0,8602.725522
34632, 0, 120, 363477, 76947,150,8626.15345
34633, 0, 120, 364494, 76455,150,8629.537554
34634, 0, 120, 363917, 76860,120,8630.958856
34635, 0, 120, 364190, 76355,120,8632.238557
34636, 0, 120, 364440, 76656,90,8633.340359
34637, 0, 120, 364162, 76227,90,8635.795262
34638, 0, 120, 364213, 76966,90,8642.57257
34639, 0, 120, 364042, 75984,90,8643.741071
34640, 0, 120, 364258, 77292,240,8671.512604
34641, 0, 120, 363694, 76127,240,8673.950407
34642, 0, 120, 364499, 77433,210,8675.161708
34643, 0, 120, 363589, 76125,210,8677.622011
34644, 0, 120, 364298, 77438,180,8677.825211
34645, 0, 120, 363589, 76061,150,8678.089512
34646, 0, 120, 364763, 77321,120,8678.360912
34647, 0, 120, 363424, 76060,90,8678.601112
34648, 0, 120, 365089, 77074,60,8678.838112
34649, 0, 120, 363621, 76003,30,8679.075013
34650, 0, 120, 364826, 77069,0,8679.515913
34651, 0, 120, 363590, 76069,0,8679.918614
34652, 0, 120, 364731, 76935,0,8684.119219
34653, 0, 120, 363378, 76575,0,8687.842323
34654, 0, 120, 364770, 76806,0,8692.044528
34655, 0, 120, 363445, 76810,0,8695.954033
34656, 0, 120, 364372, 76726,0,8699.900637
34657, 0, 120, 363663, 76886,0,8703.828042
34658, 0, 120, 364357, 76478,0,8707.855947
34659, 0, 120, 363848, 76902,0,8711.825251
34660, 0, 120, 364356, 76262,0,8715.851056
34661, 0, 120, 364409, 76732,0,8719.859861
34662, 0, 120, 364080, 76255,0,8723.850766
34663, 0, 120, 364431, 76930,0,8727.82777
34664, 0, 120, 363959, 75987,0,8731.862975
34665, 0, 120, 364289, 77331,0,8735.78368
34666, 0, 120, 363887, 76064,0,8739.989385
34667, 0, 120, 364399, 77430,0,8744.09439
34668, 0, 120, 363586, 76100,0,8747.865294
34669, 0, 120, 364487, 77399,0,8751.906399
34670, 0, 120, 363529, 75988,0,8755.802003
34671, 0, 120, 364752, 77388,0,8759.890908
34672, 0, 120, 363672, 75970,0,8763.874313
34673, 0, 120, 365085, 76985,0,8767.878218
34674, 0, 120, 363558, 76067,0,8771.950923
34675, 0, 120, 364990, 77028,0,8775.938327
34676, 0, 120, 363510, 75988,0,8779.938932
34677, 0, 120, 364701, 76924,0,8783.997637
34678, 0, 120, 363518, 76567,0,8787.946041
34679, 0, 120, 364691, 76701,0,8791.874446
34680, 0, 120, 363442, 76935,0,8795.907751
34681, 0, 120, 364554, 76612,0,8799.933056
34682, 0, 120, 363645, 76792,0,8803.97856
34683, 0, 120, 364337, 76540,0,8807.932565
34684, 0, 120, 364046, 76844,0,8811.94107
34685, 0, 120, 364237, 76178,0,8815.983575
34686, 0, 120, 364316, 76860,0,8820.079679
34687, 0, 120, 364170, 76114,0,8823.951684
34688, 0, 120, 364359, 76908,0,8828.136589
34689, 0, 120, 363838, 76172,0,8832.113094
34690, 0, 120, 364343, 77317,0,8835.995598
34691, 0, 120, 363835, 76018,0,8840.121503
34692, 0, 120, 364345, 77582,0,8843.965008
34693, 0, 120, 363618, 76039,0,8847.933912
34694, 0, 120, 364438, 77347,0,8851.949917
34695, 0, 120, 363394, 76168,0,8856.099622
34696, 0, 120, 364795, 77304,0,8860.052427
34697, 0, 120, 363552, 75945,0,8864.094831
34698, 0, 120, 364959, 77179,0,8867.949336
34699, 0, 120, 363578, 75947,0,8872.048741
34700, 0, 120, 364913, 76961,0,8875.979845
34701, 0, 120, 363404, 76232,0,8879.91125
34702, 0, 120, 364759, 76909,0,8884.048455
34703, 0, 120, 363549, 76546,0,8888.04216
34704, 0, 120, 364547, 76863,0,8892.042764
34705, 0, 120, 363495, 76859,0,8896.048569
34706, 0, 120, 364488, 76553,0,8899.874274
34707, 0, 120, 363524, 77001,0,8904.033979
34708, 0, 120, 364419, 76506,0,8907.893283
34709, 0, 120, 364134, 76819,0,8911.891788
34710, 0, 120, 364142, 76307,0,8915.836493
34711, 0, 120, 364442, 76776,0,8920.055598
34712, 0, 120, 364117, 76091,0,8924.018602
34713, 0, 120, 364239, 77015,0,8928.077107
34714, 0, 120, 363902, 76053,0,8931.954512
34715, 0, 120, 364353, 77246,0,8936.065717
34716, 0, 120, 363691, 76151,0,8940.161421
34717, 0, 120, 364497, 77546,0,8944.446026
34718, 0, 120, 363708, 75975,0,8949.839033
34719, 0, 120, 364391, 77450,30,8959.076844
34720, 0, 120, 363569, 76107,0,8959.560844
34721, 0, 120, 364880, 77203,0,8959.901445
34722, 0, 120, 363470, 76010,0,8965.189051
34723, 0, 120, 364983, 77074,0,8970.521257
34724, 0, 120, 363643, 75967,60,8979.544868
34725, 0, 120, 364827, 77013,270,9012.617707
34726, 0, 120, 363582, 76159,240,9014.376409
34727, 0, 120, 364802, 76786,210,9015.18231
34728, 0, 120, 363479, 76675,210,9017.438913
34729, 0, 120, 364643, 76829,180,9018.475314
34730, 0, 120, 363537, 76714,180,9019.796916
34731, 0, 120, 364423, 76630,150,9020.779117
34732, 0, 120, 363612, 76957,120,9022.830919
34733, 0, 120, 364388, 76377,120,9025.861523
34734, 0, 120, 364081, 76881,120,9028.869426
34735, 0, 120, 364236, 76293,90,9029.479227
34736, 0, 120, 364479, 76620,60,9030.719628
34737, 0, 120, 364073, 76143,90,9037.351936
34738, 0, 120, 364274, 77011,60,9038.299537
34739, 0, 120, 363940, 75938,30,9039.316239
34740, 0, 120, 364244, 77480,30,9039.895439
34741, 0, 120, 363661, 76102,0,9040.40404
34742, 0, 120, 364438, 77401,210,9073.261879
34743, 0, 120, 363567, 76115,180,9074.908081
34744, 0, 120, 364384, 77451,240,9083.906691
34745, 0, 120, 363636, 76005,210,9085.663093
34746, 0, 120, 364871, 77293,180,9086.682495
34747, 0, 120, 363487, 76053,180,9087.681296
34748, 0, 120, 365027, 76964,180,9092.384601
34749, 0, 120, 363580, 76018,150,9094.475504
34750, 0, 120, 364798, 77025,150,9097.050107
34751, 0, 120, 363539, 76085,120,9098.012208
34752, 0, 120, 364660, 76898,180,9107.736519
34753, 0, 120, 363439, 76757,180,9115.209828
34754, 0, 120, 364703, 76750,210,9121.738036
34755, 0, 120, 363461, 76814,210,9123.736338
34756, 0, 120, 364365, 76619,180,9124.87334
34757, 0, 120, 363760, 76906,150,9126.149641
34758, 0, 120, 364330, 76451,150,9130.655947
34759, 0, 120, 364023, 76926,150,9132.099648
34760, 0, 120, 364317, 76216,120,9133.82715
34761, 0, 120, 364363, 76779,90,9135.365052
34762, 0, 120, 363937, 76172,180,9148.685768
34763, 0, 120, 364395, 77001,240,9161.310283
34764, 0, 120, 363884, 76035,210,9162.380084
34765, 0, 120, 364216, 77482,180,9163.436185
34766, 0, 120, 363849, 76069,210,9170.422894
34767, 0, 120, 364380, 77445,210,9171.655495
34768, 0, 120, 363453, 76101,180,9172.851896
34769, 0, 120, 364567, 77352,150,9173.897598
34770, 0, 120, 363510, 76037,120,9175.063299
34771, 0, 120, 364774, 77275,120,9176.355401
34772, 0, 120, 363644, 75958,90,9177.437502
34773, 0, 120, 364964, 77014,60,9178.539703
34774, 0, 120, 363513, 76040,90,9186.997713
34775, 0, 120, 364986, 76962,210,9204.683034
34776, 0, 120, 363448, 76102,180,9205.654535
34777, 0, 120, 364647, 76914,150,9206.658336
34778, 0, 120, 363556, 76744,150,9207.657738
34779, 0, 120, 364641, 76729,120,9210.152341
34780, 0, 120, 363390, 76872,120,9212.678344
34781, 0, 120, 364567, 76569,90,9212.882344
34782, 0, 120, 363713, 76846,60,9213.154344
34783, 0, 120, 364270, 76545,30,9213.399344
34784, 0, 120, 364230, 76862,0,9213.625845
34785, 0, 120, 364217, 76143,0,9215.909747
34786, 0, 120, 364328, 76813,0,9219.871852
34787, 0, 120, 364131, 76135,0,9223.806357
34788, 0, 120, 364273, 76934,0,9227.975762
34789, 0, 120, 363775, 76112,0,9231.867366
34790, 0, 120, 364371, 77424,0,9235.808971
34791, 0, 120, 363707, 76034,0,9239.785276
34792, 0, 120, 364327, 77602,0,9243.78018
34793, 0, 120, 363642, 76034,0,9247.807785
34794, 0, 120, 364552, 77265,0,9251.81559
34795, 0, 120, 363508, 76146,0,9255.792495
34796, 0, 120, 364925, 77249,0,9259.803099
34797, 0, 120, 363569, 75863,0,9263.828104
34798, 0, 120, 364918, 77063,0,9267.889809
34799, 0, 120, 363624, 75948,0,9271.992214
34800, 0, 120, 364893, 76881,0,9276.025118
34801, 0, 120, 363379, 76242,0,9279.959723
34802, 0, 120, 364657, 76827,0,9284.054928
34803, 0, 120, 363462, 76692,0,9287.989633
34804, 0, 120, 364529, 76894,0,9291.976337
34805, 0, 120, 363524, 76797,0,9295.960642
34806, 0, 120, 364430, 76514,0,9300.041347
34807, 0, 120, 363657, 77001,0,9304.034652
34808, 0, 120, 364362, 76412,0,9308.238657
34809, 0, 120, 364222, 76828,0,9312.036561
34810, 0, 120, 364124, 76336,0,9315.968366
34811, 0, 120, 364415, 76809,0,9320.06577
34812, 0, 120, 364076, 76080,0,9324.003275
34813, 0, 120, 364243, 77179,0,9327.79228
34814, 0, 120, 363881, 76022,0,9331.956385
34815, 0, 120, 364307, 77428,0,9335.819789
34816, 0, 120, 363644, 76239,0,9339.890094
34817, 0, 120, 364436, 77483,0,9343.787099
34818, 0, 120, 363582, 75996,0,9347.763603
34819, 0, 120, 364437, 77423,0,9352.010308
34820, 0, 120, 363534, 76043,0,9355.959313
34821, 0, 120, 364977, 77208,0,9359.850218
34822, 0, 120, 363474, 76083,0,9363.977822
34823, 0, 120, 365028, 77046,0,9368.035527
34824, 0, 120, 363602, 75912,0,9371.906732
34825, 0, 120, 364742, 77029,0,9375.853236
34826, 0, 120, 363512, 76277,0,9379.946341
34827, 0, 120, 364634, 76781,0,9384.018946
34828, 0, 120, 363375, 76799,0,9388.048951
34829, 0, 120, 364622, 76698,0,9392.081456
34830, 0, 120, 363536, 76751,0,9396.07516
34831, 0, 120, 364310, 76591,0,9399.962265
34832, 0, 120, 363782, 76928,0,9403.82307
34833, 0, 120, 364345, 76363,0,9407.973074
34834, 0, 120, 364096, 76952,0,9411.949479
34835, 0, 120, 364193, 76242,0,9415.957884
34836, 0, 120, 364490, 76755,0,9420.001089
34837, 0, 120, 364017, 76161,0,9424.038793
34838, 0, 120, 364358, 77137,0,9428.111798
34839, 0, 120, 363881, 75950,0,9431.910703
34840, 0, 120, 364235, 77468,0,9436.039708
34841, 0, 120, 363721, 76147,0,9439.892112
34842, 0, 120, 364469, 77376,0,9444.040017
34843, 0, 120, 363549, 76049,0,9447.981322
34844, 0, 120, 364619, 77390,0,9452.055127
34845, 0, 120, 363629, 75982,0,9456.060331
34846, 0, 120, 364876, 77272,0,9459.970036
34847, 0, 120, 363533, 76071,0,9463.980841
34848, 0, 120, 364991, 76896,0,9467.970145
34849, 0, 120, 363535, 76026,0,9471.95585
34850, 0, 120, 364805, 76983,0,9475.963355
34851, 0, 120, 363487, 76171,0,9480.60826
34852, 0, 120, 364599, 76894,0,9485.790366
34853, 0, 120, 363456, 76897,0,9490.530772
34854, 0, 120, 364639, 76635,60,9500.303584
34855, 0, 120, 363450, 76872,30,9500.506984
34856, 0, 120, 364348, 76605,0,9500.704984
34857, 0, 120, 363824, 76823,0,9506.551391
34858, 0, 120, 364244, 76446,30,9512.129198
34859, 0, 120, 364163, 77003,0,9512.955999
34860, 0, 120, 364215, 76098,30,9522.34711
34861, 0, 120, 364362, 76859,90,9531.978321
34862, 0, 120, 363986, 76162,210,9555.509949
34863, 0, 120, 364388, 77082,210,9556.17145
34864, 0, 120, 363785, 76066,180,9556.76845
34865, 0, 120, 364170, 77552,150,9558.378252
34866, 0, 120, 363674, 76062,120,9559.045353
34867, 0, 120, 364391, 77517,120,9559.631454
34868, 0, 120, 363417, 76128,90,9561.377256
34869, 0, 120, 364683, 77317,90,9567.159263
34870, 0, 120, 363535, 76069,90,9567.975764
34871, 0, 120, 364934, 77290,60,9568.514864
34872, 0, 120, 363628, 75980,30,9569.173665
34873, 0, 120, 364900, 77027,0,9569.969766
34874, 0, 120, 363446, 76073,0,9572.842969
34875, 0, 120, 364871, 76924,60,9583.683882
34876, 0, 120, 363411, 76355,30,9584.918084
34877, 0, 120, 364450, 76889,0,9585.915385
34878, 0, 120, 363575, 76857,0,9588.789588
34879, 0, 120, 364589, 76735,180,9619.320224
34880, 0, 120, 363401, 76865,180,9620.524626
34881, 0, 120, 364483, 76564,150,9621.601027
34882, 0, 120, 363810, 76893,180,9627.776334
34883, 0, 120, 364210, 76430,150,9630.763338
34884, 0, 120, 364348, 76914,150,9634.392442
34885, 0, 120, 364106, 76111,150,9635.606444
34886, 0, 120, 364283, 76876,120,9637.791546
34887, 0, 120, 364083, 76082,90,9638.812447
34888, 0, 120, 364282, 77131,150,9649.56846
34889, 0, 120, 363708, 76103,150,9652.088563
34890, 0, 120, 364362, 77485,150,9658.614771
34891, 0, 120, 363648, 76047,120,9659.574172
34892, 0, 120, 364290, 77528,120,9660.712673
34893, 0, 120, 363649, 76004,90,9661.787574
34894, 0, 120, 364668, 77203,60,9662.895276
34895, 0, 120, 363488, 76085,60,9664.438978
34896, 0, 120, 365070, 77211,60,9668.413982
34897, 0, 120, 363496, 75866,30,9669.465084
34898, 0, 120, 364921, 77080,0,9670.511185
34899, 0, 120, 363655, 76007,0,9673.165888
34900, 0, 120, 364740, 76859,120,9692.328211
34901, 0, 120, 363401, 76479,120,9697.696817
34902, 0, 120, 364652, 76805,90,9698.752118
34903, 0, 120, 363484, 76795,90,9699.97572
34904, 0, 120, 364514, 76826,60,9701.191421
34905, 0, 120, 363542, 76808,90,9708.42523
34906, 0, 120, 364388, 76449,60,9709.476431
34907, 0, 120, 363800, 76965,30,9710.524532
34908, 0, 120, 364328, 76339,30,9711.621333
34909, 0, 120, 364294, 76841,0,9712.803635
34910, 0, 120, 364084, 76268,0,9716.758239
34911, 0, 120, 364415, 76836,0,9720.604244
34912, 0, 120, 364029, 75984,180,9747.902276
34913, 0, 120, 364246, 77318,150,9748.999578
34914, 0, 120, 363813, 76046,120,9750.205879
34915, 0, 120, 364229, 77428,120,9754.379184
34916, 0, 120, 363541, 76265,90,9754.627784
34917, 0, 120, 364462, 77404,60,9754.828184
34918, 0, 120, 363561, 75971,30,9755.052985
34919, 0, 120, 364603, 77444,0,9755.295485
34920, 0, 120, 363605, 76088,0,9755.806686
34921, 0, 120, 364983, 77142,0,9759.90549
34922, 0, 120, 363476, 76070,0,9763.773395
34923, 0, 120, 364950, 76982,0,9767.784
34924, 0, 120, 363533, 75986,0,9772.247905
34925, 0, 120, 364711, 77066,0,9775.675809
34926, 0, 120, 363466, 76489,0,9779.786114
34927, 0, 120, 364612, 76716,0,9783.780719
34928, 0, 120, 363367, 76907,0,9787.788323
34929, 0, 120, 364549, 76672,0,9791.848228
34930, 0, 120, 363549, 76746,0,9795.933533
34931, 0, 120, 364281, 76539,0,9799.914838
34932, 0, 120, 364021, 76873,0,9803.900942
34933, 0, 120, 364288, 76347,0,9807.833647
34934, 0, 120, 364160, 76995,0,9811.793752
34935, 0, 120, 364140, 76174,0,9816.012957
34936, 0, 120, 364393, 76823,0,9819.965761
34937, 0, 120, 363803, 76173,0,9823.935466
34938, 0, 120, 364311, 77238,0,9827.965471
34939, 0, 120, 363786, 75994,0,9832.027076
34940, 0, 120, 364167, 77597,0,9835.95278
34941, 0, 120, 363721, 76128,0,9839.932285
34942, 0, 120, 364477, 77304,0,9843.95349
34943, 0, 120, 363495, 76037,0,9847.840694
34944, 0, 120, 364761, 77295,0,9852.009399
34945, 0, 120, 363640, 75952,0,9855.920904
34946, 0, 120, 364905, 77207,0,9859.960509
34947, 0, 120, 363554, 76043,0,9863.908213
34948, 0, 120, 364952, 76931,0,9867.989718
34949, 0, 120, 363486, 76101,0,9871.950723
34950, 0, 120, 364819, 76947,0,9875.956128
34951, 0, 120, 363505, 76371,0,9879.917332
34952, 0, 120, 364503, 76828,0,9883.953937
34953, 0, 120, 363455, 76911,0,9888.010642
34954, 0, 120, 364530, 76586,0,9891.935047
34955, 0, 120, 363522, 76832,0,9895.932851
34956, 0, 120, 364322, 76484,0,9899.960356
34957, 0, 120, 364036, 76752,0,9903.919461
34958, 0, 120, 364187, 76296,0,9907.968166
34959, 0, 120, 364291, 76970,0,9911.95827
34960, 0, 120, 364123, 76067,0,9915.917075
34961, 0, 120, 364344, 76874,0,9919.95198
34962, 0, 120, 363900, 76126,0,9923.950284
34963, 0, 120, 364366, 77197,0,9927.999289
34964, 0, 120, 363680, 76095,0,9932.016694
34965, 0, 120, 364169, 77586,0,9935.884699
34966, 0, 120, 363721, 76075,0,9940.044003
34967, 0, 120, 364369, 77423,0,9943.986108
34968, 0, 120, 363411, 76060,0,9948.065913
34969, 0, 120, 364812, 77229,0,9951.923017
34970, 0, 120, 363480, 76087,0,9955.899122
34971, 0, 120, 364873, 77254,0,9959.934827
34972, 0, 120, 363580, 75960,0,9964.082532
34973, 0, 120, 364851, 76984,0,9968.040337
34974, 0, 120, 363417, 76140,0,9971.964641
34975, 0, 120, 364827, 76871,0,9975.931346
34976, 0, 120, 363444, 76504,0,9979.954651
34977, 0, 120, 364452, 76849,0,9983.939355
34978, 0, 120, 363570, 76901,0,9987.95816
34979, 0, 120, 364508, 76642,0,9991.921465
34980, 0, 120, 363444, 76837,0,9995.94287
34981, 0, 120, 364404, 76462,0,9999.898374
34982, 0, 120, 363951, 76774,0,10003.962079
34983, 0, 120, 364157, 76347,0,10007.942084
34984, 0, 120, 364360, 76912,0,10011.969888
34985, 0, 120, 364058, 76081,0,10015.863393
34986, 0, 120, 364275, 76926,0,10020.017798
34987, 0, 120, 364021, 76041,0,10023.815902
34988, 0, 120, 364274, 77241,0,10028.865608
34989, 0, 120, 363721, 76190,0,10034.602815
34990, 0, 120, 364343, 77572,60,10043.863326
34991, 0, 120, 363611, 76070,30,10044.140626
34992, 0, 120, 364348, 77471,0,10044.361527
34993, 0, 120, 363622, 76036,0,10050.019733
34994, 0, 120, 364759, 77184,30,10056.333041
34995, 0, 120, 363504, 76121,0,10057.391042
34996, 0, 120, 365003, 77208,60,10068.211455
34997, 0, 120, 363503, 75896,150,10087.529278
34998, 0, 120, 364827, 77098,210,10099.623092
34999, 0, 120, 363590, 76034,210,10100.240093
35000, 0, 120, 364811, 76772,180,10101.916195
35001, 0, 120, 363394, 76575,150,10102.607896
35002, 0, 120, 364627, 76724,120,10103.336096
35003, 0, 120, 363406, 76858,120,10105.240699
35004, 0, 120, 364381, 76748,90,10106.0251
35005, 0, 120, 363566, 76803,120,10112.046207
35006, 0, 120, 364320, 76359,90,10112.675308
35007, 0, 120, 363927, 76923,60,10113.377308
35008, 0, 120, 364288, 76277,30,10114.193909
35009, 0, 120, 364263, 76865,0,10115.04721
35010, 0, 120, 363948, 76215,0,10116.500512
35011, 0, 120, 364421, 76922,60,10128.238626
35012, 0, 120, 363954, 76014,30,10129.099127
35013, 0, 120, 364182, 77407,0,10129.857528
35014, 0, 120, 363751, 76036,0,10132.589431
35015, 0, 120, 364270, 77457,0,10136.499236
35016, 0, 120, 363518, 76242,0,10140.616141
35017, 0, 120, 364407, 77424,0,10144.593445
35018, 0, 120, 363557, 75965,0,10148.48735
35019, 0, 120, 364755, 77385,30,10158.919762
35020, 0, 120, 363554, 76019,180,10182.19529
35021, 0, 120, 364979, 77120,150,10183.435291
35022, 0, 120, 363393, 76036,150,10184.613193
35023, 0, 120, 364878, 76970,150,10188.988998
35024, 0, 120, 363494, 76022,150,10195.318905
35025, 0, 120, 364653, 76949,150,10197.448308
35026, 0, 120, 363443, 76572,210,10210.178123
35027, 0, 120, 364544, 76725,210,10212.511026
35028, 0, 120, 363346, 76991,210,10217.217631
35029, 0, 120, 364437, 76647,180,10218.186132
35030, 0, 120, 363612, 76721,150,10219.269234
35031, 0, 120, 364230, 76474,150,10220.334335
35032, 0, 120, 364091, 76866,120,10221.480436
35033, 0, 120, 364270, 76200,90,10222.614737
35034, 0, 120, 364180, 76961,90,10223.697739
35035, 0, 120, 364081, 76161,90,10227.846644
35036, 0, 120, 364382, 76873,60,10229.098045
35037, 0, 120, 363806, 76115,30,10230.711347
35038, 0, 120, 364330, 77404,30,10231.722048
35039, 0, 120, 363747, 76031,0,10232.90755
35040, 0, 120, 364155, 77537,0,10236.903154
35041, 0, 120, 363639, 76128,150,10260.702483
35042, 0, 120, 364477, 77314,120,10262.018784
35043, 0, 120, 363408, 76030,120,10264.402587
35044, 0, 120, 364881, 77255,120,10270.204294
35045, 0, 120, 363565, 75931,90,10271.320895
35046, 0, 120, 364868, 77211,90,10272.404796
35047, 0, 120, 363570, 76045,60,10273.473798
35048, 0, 120, 364926, 76891,30,10274.484299
35049, 0, 120, 363467, 76113,30,10275.6167
35050, 0, 120, 364715, 76884,0,10276.827102
35051, 0, 120, 363489, 76514,180,10304.659234
35052, 0, 120, 364435, 76781,150,10305.864636
35053, 0, 120, 363445, 76937,120,10306.894937
35054, 0, 120, 364472, 76536,120,10310.036541
35055, 0, 120, 363574, 76853,90,10310.241341
35056, 0, 120, 364315, 76443,60,10310.443841
35057, 0, 120, 364175, 76739,30,10310.731442
35058, 0, 120, 364164, 76297,0,10311.026042
35059, 0, 120, 364260, 76982,0,10312.042543
35060, 0, 120, 364086, 76005,0,10315.864948
35061, 0, 120, 364376, 76961,0,10319.814852
35062, 0, 120, 363828, 76103,0,10323.943857
35063, 0, 120, 364335, 77315,0,10328.117062
35064, 0, 120, 363657, 76116,0,10331.743966
35065, 0, 120, 364177, 77526,0,10335.732071
35066, 0, 120, 363669, 76001,0,10339.722876
35067, 0, 120, 364401, 77418,0,10343.746781
35068, 0, 120, 363390, 76041,0,10347.724085
35069, 0, 120, 364931, 77122,0,10351.72599
35070, 0, 120, 363526, 76063,0,10355.705695
35071, 0, 120, 364823, 77200,0,10359.7551
35072, 0, 120, 363558, 75954,0,10363.864404
35073, 0, 120, 364817, 76987,0,10367.894409
35074, 0, 120, 363432, 76248,0,10371.943014
35075, 0, 120, 364821, 76809,0,10375.903919
35076, 0, 120, 363427, 76649,0,10379.904723
35077, 0, 120, 364406, 76811,0,10383.883428
35078, 0, 120, 363566, 76871,0,10387.933833
35079, 0, 120, 364379, 76618,0,10391.964738
35080, 0, 120, 363482, 76878,0,10395.938042
35081, 0, 120, 364342, 76418,0,10400.211047
35082, 0, 120, 364141, 76809,0,10403.978352
35083, 0, 120, 364054, 76336,0,10407.943757
35084, 0, 120, 364333, 76899,0,10411.961661
35085, 0, 120, 363979, 76061,0,10415.932366
35086, 0, 120, 364272, 77069,0,10419.944671
35087, 0, 120, 364017, 76061,0,10423.791275
35088, 0, 120, 364287, 77333,0,10427.78198
35089, 0, 120, 363584, 76156,0,10431.776285
35090, 0, 120, 364333, 77468,0,10435.83129
35091, 0, 120, 363556, 76064,0,10439.933694
35092, 0, 120, 364401, 77471,0,10443.928899
35093, 0, 120, 363572, 76014,0,10447.926004
35094, 0, 120, 364835, 77164,0,10452.008609
35095, 0, 120, 363494, 76053,0,10455.901013
35096, 0, 120, 365041, 77132,0,10459.958818
35097, 0, 120, 363475, 75884,0,10463.957123
35098, 0, 120, 364773, 77031,0,10467.836727
35099, 0, 120, 363596, 76198,0,10471.951832
35100, 0, 120, 364723, 76753,0,10475.825837
35101, 0, 120, 363378, 76748,0,10479.948642
35102, 0, 120, 364566, 76744,0,10483.853446
35103, 0, 120, 363362, 76804,0,10487.932451
35104, 0, 120, 364350, 76650,0,10491.856656
35105, 0, 120, 363678, 76794,0,10496.010561
35106, 0, 120, 364303, 76279,0,10499.993465
35107, 0, 120, 364154, 76900,0,10503.93457
35108, 0, 120, 364248, 76288,0,10507.862575
35109, 0, 120, 364280, 76882,0,10511.868179
35110, 0, 120, 363939, 76187,0,10515.940884
35111, 0, 120, 364371, 76998,0,10519.933389
35112, 0, 120, 363834, 76006,0,10523.846094
35113, 0, 120, 364247, 77520,0,10527.921798
35114, 0, 120, 363683, 76073,0,10531.897703
35115, 0, 120, 364216, 77360,0,10535.917708
35116, 0, 120, 363464, 76203,0,10539.941513
35117, 0, 120, 364565, 77317,0,10543.955717
35118, 0, 120, 363533, 75862,0,10547.934822
35119, 0, 120, 364847, 77259,0,10551.881227
35120, 0, 120, 363582, 75976,0,10555.991732
35121, 0, 120, 364983, 77078,0,10559.854436
35122, 0, 120, 363376, 76116,0,10563.871341
35123, 0, 120, 364810, 76940,0,10568.259746
35124, 0, 120, 363530, 76164,0,10572.992752
35125, 0, 120, 364640, 76995,0,10577.233157
35126, 0, 120, 363468, 76666,30,10587.038568
35127, 0, 120, 364512, 76677,0,10587.323469
35128, 0, 120, 363355, 77033,0,10588.69917
35129, 0, 120, 364425, 76616,0,10593.534976
35130, 0, 120, 363702, 76725,30,10600.829185
35131, 0, 120, 364179, 76501,0,10601.745786
35132, 0, 120, 364227, 76841,30,10611.482997
35133, 0, 120, 364160, 76163,240,10641.203332
35134, 0, 120, 364173, 76999,210,10641.837633
35135, 0, 120, 363998, 76122,180,10642.332734
35136, 0, 120, 364373, 77031,180,10644.052436
35137, 0, 120, 363759, 76164,150,10644.605736
35138, 0, 120, 364388, 77471,120,10646.349838
35139, 0, 120, 363685, 76029,90,10647.094339
35140, 0, 120, 364124, 77537,120,10652.041145
35141, 0, 120, 363572, 76159,90,10653.538547
35142, 0, 120, 364550, 77299,60,10654.242048
35143, 0, 120, 363403, 76037,30,10654.995349
35144, 0, 120, 364904, 77226,30,10656.19505
35145, 0, 120, 363635, 75934,60,10665.834861
35146, 0, 120, 364861, 77150,30,10666.819363
35147, 0, 120, 363485, 76037,30,10668.616665
35148, 0, 120, 364854, 76861,0,10669.864166
35149, 0, 120, 363408, 76262,30,10676.701574
35150, 0, 120, 364750, 76879,0,10677.761776
35151, 0, 120, 363481, 76666,0,10682.961982
35152, 0, 120, 364437, 76724,0,10685.823785
35153, 0, 120, 363479, 76934,0,10691.500792
35154, 0, 120, 364497, 76495,120,10707.877511
35155, 0, 120, 363677, 76877,90,10708.920112
35156, 0, 120, 364323, 76465,60,10709.888614
35157, 0, 120, 364300, 76692,30,10711.077515
35158, 0, 120, 364195, 76296,30,10712.096516
35159, 0, 120, 364304, 76954,30,10718.481224
35160, 0, 120, 364074, 76007,30,10720.954327
35161, 0, 120, 364291, 77131,0,10722.041828
35162, 0, 120, 363856, 76145,0,10727.239334
35163, 0, 120, 364429, 77343,0,10729.643637
35164, 0, 120, 363626, 76112,30,10736.336745
35165, 0, 120, 364283, 77537,60,10747.381958
35166, 0, 120, 363591, 76009,60,10748.295559
35167, 0, 120, 364532, 77383,30,10749.33176
35168, 0, 120, 363430, 76023,0,10750.372461
35169, 0, 120, 364994, 77063,30,10758.126471
35170, 0, 120, 363535, 75982,0,10759.147972
35171, 0, 120, 364752, 77167,0,10763.484277
35172, 0, 120, 363515, 75927,0,10764.817678
35173, 0, 120, 364744, 76951,0,10768.436583
35174, 0, 120, 363434, 76376,0,10772.588188
35175, 0, 120, 364732, 76742,0,10776.867193
35176, 0, 120, 363414, 76774,0,10780.252497
35177, 0, 120, 364351, 76718,0,10784.359102
35178, 0, 120, 363506, 76851,150,10808.47483
