0
2829
2876
2857
2838
2790
2743
2699
2655
2629
2604
2589
2574
2554
2535
2496
2458
2403
2349
2290
2232
2187
2142
2115
2089
2076
2064
2051
2039
2017
1996
1964
1933
1901
1870
1846
1823
1807
1792
1771
1751
1711
1671
1606
1541
1468
1395
1345
1295
1304
1314
1399
1484
1633
1783
1958
2133
2286
2440
2536
2633
2664
2696
2679
2662
2625
2588
2553
2518
2492
2466
2442
2418
2386
2355
2313
2271
2226
2181
2144
2108
2086
2064
2053
2043
2035
2027
2011
1996
1972
1949
1921
1894
1869
1845
1819
1794
1760
1726
1673
1620
1551
1482
1419
1356
1331
1307
1350
1393
1510
1628
1796
1965
2138
2311
2442
2573
2636
2700
2699
2698
2660
2622
2579
2536
2508
2481
2466
2452
2437
2422
2391
2361
2314
2268
2216
2165
2124
2083
2060
2038
2030
2022
2014
2007
1988
1970
1939
1908
1872
1836
1804
1772
1745
1719
1688
1658
1612
1566
1501
1437
1371
1306
1271
1236
1265
1295
1401
1508
1676
1845
2032
2220
2376
2533
2623
2713
2732
2751
2721
2691
2647
2603
2570
2538
2525
2512
2506
2500
2491
2483
2451
2419
2371
2323
2274
2226
2193
2160
2144
2129
2122
2116
2102
2089
2061
2034
1995
1956
1918
1880
1849
1818
1790
1763
1724
1685
1622
1559
1475
1391
1313
1235
1204
1174
1224
1275
1413
1552
1750
1949
2153
2358
2515
2672
2750
2828
2831
2835
2793
2751
2700
2650
2613
2576
2553
2531
2508
2485
2448
2412
2359
2306
2248
2191
2144
2097
2069
2041
2026
2012
2000
1988
1968
1949
1922
1895
1866
1838
1813
1788
1762
1737
1697
1658
1593
1528
1443
1359
1282
1205
1177
1149
1202
1256
1398
1540
1739
1938
2141
2345
2498
2651
2727
2803
2805
2807
2766
2725
2674
2624
2584
2544
2512
2481
2447
2413
2366
2319
2262
2206
2152
2099
2061
2024
2005
1986
1977
1969
1956
1943
1920
1897
1864
1832
1799
1767
1736
1705
1670
1635
1582
1529
1454
1380
1297
1215
1161
1108
1123
1138
1246
1355
1546
1737
1964
2191
2392
2593
2720
2848
2885
2922
2891
2861
2803
2746
2697
2648
2619
2590
2572
2555
2527
2500
2453
2406
2343
2281
2222
2164
2124
2084
2066
2048
2039
2031
2016
2001
1971
1941
1900
1860
1820
1780
1747
1715
1682
1649
1599
1549
1471
1394
1299
1204
1127
1050
1039
1029
1116
1204
1388
1573
1811
2050
2279
2509
2670
2832
2901
2970
2959
2948
2897
2846
2794
2742
2709
2677
2658
2640
2617
2595
2553
2511
2452
2393
2330
2268
2219
2171
2141
2112
2095
2078
2058
2039
2010
1981
1943
1906
1870
1834
1803
1773
1742
1712
1665
1618
1545
1473
1381
1289
1211
1134
1114
1095
1165
1236
1397
1558
1773
1989
2199
2409
2561
2714
2782
2851
2846
2841
2794
2748
2693
2639
2592
2546
2506
2466
2419
2373
2314
2256
2189
2122
2062
2002
1961
1920
1900
1881
1873
1865
1858
1851
1837
1824
1806
1788
1767
1746
1719
1693
1652
1611
1546
1482
1399
1316
1240
1165
1136
1107
1161
1216
1362
1508
1719
1931
2151
2372
2546
2720
2811
2902
2912
2923
2882
2842
2789
2736
2693
2650
2618
2586
2550
2515
2463
2412
2345
2278
2211
2144
2095
2047
2024
2002
1996
1991
1986
1981
1960
1940
1904
1868
1825
1783
1745
1707
1672
1638
1594
1551
1484
1418
1330
1243
1160
1078
1051
1024
1075
1126
1280
1435
1659
1884
2120
2357
2543
2729
2828
2927
2938
2949
2906
2863
2807
2752
2712
2672
2650
2628
2609
2591
2556
2522
2468
2414
2349
2285
2229
2174
2137
2100
2081
2062
2047
2032
2010
1989
1957
1925
1890
1856
1826
1797
1771
1746
1712
1678
1621
1564
1482
1401
1316
1231
1181
1132
1158
1184
1300
1417
1605
1794
2005
2216
2392
2569
2672
2775
2800
2825
2794
2764
2714
2664
2618
2573
2539
2505
2472
2440
2397
2355
2301
2247
2191
2136
2091
2047
2020
1994
1981
1969
1959
1950
1935
1921
1900
1879
1855
1832
1806
1781
1747
1713
1659
1606
1529
1452
1366
1281
1220
1159
1163
1168
1261
1355
1528
1702
1912
2123
2314
2505
2629
2753
2794
2835
2812
2789
2737
2685
2636
2587
2553
2519
2491
2463
2427
2391
2340
2289
2231
2174
2123
2073
2042
2011
1996
1981
1972
1963
1945
1927
1897
1868
1831
1795
1762
1730
1700
1671
1635
1600
1545
1491
1416
1341
1265
1190
1153
1116
1155
1194
1324
1454
1652
1851
2068
2286
2462
2639
2737
2836
2853
2870
2833
2797
2746
2696
2659
2623
2604
2585
2570
2556
2528
2501
2455
2410
2354
2298
2248
2199
2166
2133
2115
2097
2082
2067
2044
2021
1986
1952
1914
1877
1843
1809
1777
1746
1706
1667
1606
1546
1465
1384
1305
1226
1187
1149
1189
1229
1359
1490
1688
1886
2099
2313
2485
2657
2749
2842
2854
2866
2825
2784
2729
2675
2633
2591
2566
2541
2518
2496
2461
2426
2373
2320
2260
2200
2147
2095
2061
2028
2009
1990
1975
1961
1938
1916
1885
1855
1822
1789
1761
1734
1709
1684
1650
1616
1558
1501
1422
1344
1266
1189
1153
1118
1160
1202
1334
1466
1662
1859
2069
2280
2448
2616
2708
2800
2814
2828
2792
2757
2706
2655
2612
2570
2537
2505
2473
2441
2397
2353
2298
2243
2188
2133
2091
2050
2026
2003
1992
1981
1968
1956
1933
1911
1879
1847
1814
1781
1750
1720
1688
1656
1608
1561
1492
1423
1340
1258
1195
1132
1128
1125
1211
1297
1468
1640
1859
2079
2286
2494
2637
2781
2837
2893
2876
2860
2808
2756
2707
2658
2629
2601
2587
2573
2554
2536
2499
2463
2408
2353
2296
2240
2197
2155
2134
2114
2105
2097
2086
2075
2049
2024
1986
1948
1907
1866
1833
1800
1771
1742
1703
1665
1603
1542
1459
1376
1296
1217
1184
1152
1202
1253
1397
1542
1753
1964
2186
2408
2581
2754
2842
2931
2936
2942
2896
2851
2795
2740
2701
2663
2642
2621
2603
2585
2550
2515
2459
2404
2339
2275
2221
2151
2119
2095
2074
2060
2046
2018
1991
1945
1900
1847
1795
1749
1704
1670
1636
1603
1570
1520
1470
1391
1312
1217
1123
1073
1024
1024
1024
1092
1160
1331
1607
1819
2023
2317
2449
2581
2634
2687
2673
2660
2613
2566
2514
2463
2422
2365
2333
2300
2250
2211
2173
2132
2075
2041
2014
1984
1975
1966
1962
1959
1952
1946
1935
1924
1907
1890
1867
1844
1809
1774
1722
1670
1600
1531
1461
1392
1349
1307
1324
1342
1434
1526
1681
1836
2016
2196
2353
2511
2610
2709
2739
2769
2746
2724
2679
2634
2589
2545
2510
2476
2443
2411
2372
2333
2282
2232
2180
2128
2085
2042
2016
1991
1978
1966
1957
1948
1932
1917
1894
1872
1847
1823
1802
1782
1761
1741
1710
1679
1628
1577
1510
1444
1385
1326
1311
1296
1353
1410
1544
1679
1862
2046
2231
2416
2552
2689
2753
2818
2816
2814
2776
2738
2696
2655
2628
2602
2588
2574
2558
2542
2511
2481
2436
2391
2344
2297
2260
2224
2204
2185
2175
2165
2151
2138
2113
2088
2052
2016
1978
1941
1907
1874
1842
1811
1768
1726
1664
1603
1527
1452
1389
1326
1311
1297
1359
1421
1560
1700
1887
2074
2257
2440
2572
2704
2761
2819
2811
2803
2760
2717
2670
2624
2590
2557
2532
2508
2478
2449
2405
2361
2304
2247
2193
2140
2099
2058
2037
2017
2007
1998
1986
1975
1950
1926
1891
1856
1819
1782
1751
1721
1690
1660
1616
1572
1502
1432
1344
1256
1183
1110
1097
1085
1166
1248
1424
1601
1832
2064
2289
2514
2673
2833
2901
2970
2958
2946
2891
2836
2774
2713
2665
2618
2579
2540
2494
2448
2385
2323
2250
2177
2110
2043
1998
1954
1933
1913
1904
1896
1881
1867
1837
1808
1767
1727
1688
1649
1617
1585
1553
1521
1471
1422
1343
1265
1167
1069
1046
1024
1024
1024
1062
1101
1269
1437
1651
1865
2069
2273
2419
2565
2631
2698
2694
2691
2647
2604
2550
2496
2447
2399
2357
2316
2274
2233
2188
2144
2099
2055
2019
1983
1959
1936
1925
1914
1907
1901
1894
1887
1876
1866
1853
1840
1824
1808
1782
1756
1712
1669
1606
1544
1476
1409
1365
1322
1333
1345
1430
1515
1663
1811
1987
2164
2320
2477
2578
2680
2713
2746
2726
2707
2663
2620
2579
2539
2510
2482
2461
2440
2414
2389
2352
2316
2272
2228
2185
2143
2109
2076
2053
2031
2014
1997
1980
1963
1944
1925
1904
1884
1860
1837
1806
1776
1731
1686
1625
1565
1501
1438
1396
1355
1365
1376
1456
1536
1679
1823
1997
2172
2333
2495
2605
2716
2761
2806
2797
2789
2753
2718
2681
2645
2619
2593
2574
2556
2534
2513
2481
2450
2410
2370
2329
2289
2254
2220
2192
2165
2139
2114
2086
2059
2029
2000
1973
1947
1926
1905
1885
1865
1833
1802
1749
1696
1623
1550
1477
1405
1365
1326
1350
1375
1472
1570
1723
1876
2043
2210
2348
2486
2565
2644
2660
2677
2648
2620
2573
2526
2479
2432
2393
2355
2320
2286
2251
2216
2177
2138
2099
2060
2024
1989
1958
1927
1904
1881
1866
1851
1842
1833
1827
1821
1810
1799
1772
1746
1693
1641
1566
1491
1413
1335
1288
1242
1261
1281
1385
1489
1661
1834
2036
2238
2415
2593
2708
2824
2863
2903
2883
2864
2812
2761
2703
2646
2592
2538
2486
2435
2379
2324
2265
2206
2149
2093
2047
2001
1967
1934
1909
1885
1862
1840
1818
1797
1777
1757
1741
1726
1708
1690
1657
1625
1564
1503
1418
1333
1248
1164
1126
1088
1136
1185
1337
1489
1718
1947
2197
2448
2655
2862
2966
3071
3071
3071
3064
3057
2994
2931
2873
2815
2767
2719
2673
2628
2573
2519
2454
2390
2322
2254
2195
2137
2092
2047
2014
1981
1953
1925
1900
1876
1854
1832
1813
1795
1775
1755
1720
1686
1627
1569
1490
1411
1335
1259
1225
1191
1233
1275
1406
1537
1733
1929
2141
2354
2528
2703
2803
2904
2924
2944
2905
2867
2801
2735
2669
2603
2545
2487
2435
2384
2331
2278
2220
2163
2103
2043
1987
1932
1886
1840
1807
1775
1755
1735
1726
1718
1714
1711
1703
1696
1669
1642
1589
1537
1461
1386
1313
1240
1203
1166
1201
1236
1354
1472
1657
1843
2052
2261
2442
2624
2738
2853
2889
2926
2898
2870
2807
2744
2672
2600
2533
2467
2408
2349
2291
2234
2173
2112
2049
1987
1927
1868
1820
1772
1739
1707
1693
1679
1677
1675
1675
1676
1663
1651
1612
1574
1505
1437
1352
1267
1195
1124
1105
1087
1150
1213
1362
1511
1719
1927
2145
2364
2540
2717
2818
2919
2939
2960
2922
2884
2818
2752
2686
2620
2565
2510
2464
2418
2371
2324
2270
2216
2154
2093
2033
1973
1924
1875
1846
1817
1808
1800
1805
1811
1815
1819
1806
1793
1751
1709
1640
1572
1496
1421
1371
1322
1332
1342
1432
1522
1682
1843
2042
2241
2428
2616
2750
2885
2943
3002
2990
2979
2921
2864
2791
2719
2651
2584
2529
2474
2425
2376
2324
2272
2210
2148
2080
2013
1948
1884
1835
1787
1760
1733
1727
1722
1725
1728
1722
1716
1683
1650
1586
1522
1437
1352
1278
1204
1176
1148
1196
1244
1373
1502
1690
1879
2081
2283
2451
2619
2718
2817
2840
2863
2826
2789
2723
2657
2590
2523
2469
2415
2372
2330
2289
2249
2199
2149
2089
2029
1965
1901
1849
1797
1766
1736
1730
1724
1730
1737
1738
1740
1716
1693
1636
1580
1501
1423
1351
1279
1250
1222
1265
1309
1430
1552
1730
1908
2101
2294
2456
2618
2717
2816
2844
2872
2843
2815
2757
2699
2635
2572
2518
2464
2419
2374
2331
2289
2241
2194
2139
2085
2027
1969
1917
1865
1826
1788
1768
1749
1744
1739
1736
1733
1715
1697
1650
1604
1529
1454
1371
1289
1232
1175
1182
1189
1279
1370
1537
1704
1909
2115
2308
2502
2638
2775
2836
2897
2890
2884
2839
2795
2741
2688
2644
2601
2568
2535
2504
2474
2436
2399
2353
2307
2256
2205
2156
2107
2064
2021
1986
1952
1926
1900
1883
1866
1852
1838
1821
1804
1770
1737
1679
1622
1543
1465
1389
1314
1276
1238
1270
1303
1421
1540
1726
1912
2119
2327
2503
2680
2786
2893
2921
2950
2920
2891
2837
2783
2731
2680
2642
2604
2573
2542
2506
2471
2424
2378
2322
2267
2209
2151
2099
2047
2002
1957
1921
1885
1856
1828
1807
1787
1769
1751
1728
1706
1665
1624
1557
1490
1405
1320
1243
1167
1137
1107
1156
1206
1341
1476
1673
1870
2078
2286
2453
2621
2713
2805
2818
2832
2788
2745
2678
2612
2549
2486
2438
2390
2354
2318
2285
2252
2215
2179
2136
2094
2049
2005
1964
1923
1891
1859
1838
1818
1808
1798
1791
1785
1767
1750
1709
1669
1597
1525
1434
1343
1262
1181
1151
1122
1174
1226
1366
1506
1706
1906
2116
2327
2494
2661
2753
2846
2862
2878
2841
2805
2748
2692
2638
2585
2540
2496
2455
2415
2369
2324
2272
2220
2165
2111
2063
2015
1976
1938
1910
1883
1862
1842
1827
1812
1796
1780
1757
1735
1693
1651
1582
1514
1419
1325
1228
1131
1077
1024
1032
1040
1149
1258
1449
1640
1866
2093
2296
2500
2634
2768
2817
2866
2848
2831
2783
2735
2689
2643
2613
2583
2562
2542
2517
2492
2452
2413
2362
2312
2260
2209
2167
2125
2094
2064
2041
2019
1998
1978
1957
1937
1918
1899
1881
1863
1837
1812
1768
1724
1655
1586
1503
1421
1355
1289
1280
1271
1345
1419
1576
1733
1935
2137
2330
2524
2658
2793
2848
2903
2890
2877
2831
2785
2739
2694
2665
2637
2620
2604
2582
2560
2521
2482
2427
2372
2314
2257
2210
2164
2133
2103
2082
2062
2041
2020
1993
1966
1935
1905
1877
1849
1822
1796
1762
1729
1674
1619
1540
1461
1374
1287
1228
1169
1178
1187
1285
1383
1558
1734
1943
2152
2337
2523
2641
2760
2797
2835
2811
2787
2734
2681
2629
2578
2538
2499
2466
2434
2396
2359
2312
2266
2212
2159
2110
2061
2022
1984
1955
1927
1903
1880
1857
1834
1811
1788
1768
1749
1730
1711
1683
1655
1606
1557
1483
1409
1324
1240
1178
1116
1115
1114
1197
1281
1441
1602
1802
2002
2188
2375
2504
2634
2687
2741
2731
2721
2675
2629
2576
2524
2477
2431
2392
2353
2313
2274
2230
2186
2139
2092
2050
2008
1974
1941
1917
1894
1876
1858
1844
1830
1816
1802
1786
1771
1746
1721
1678
1636
1569
1503
1422
1342
1272
1203
1182
1161
1217
1273
1411
1550
1744
1938
2137
2337
2491
2646
2725
2805
2813
2821
2785
2750
2703
2657
2621
2585
2561
2538
2516
2494
2460
2426
2379
2332
2279
2227
2181
2135
2099
2064
2038
2012
1988
1964
1940
1916
1891
1866
1842
1819
1792
1765
1725
1685
1621
1558
1475
1393
1315
1237
1202
1167
1210
1253
1385
1518
1714
1911
2121
2332
2498
2665
2754
2843
2852
2861
2821
2782
2730
2679
2643
2607
2588
2570
2555
2541
2513
2486
2440
2394
2338
2283
2232
2182
2146
2110
2088
2066
2048
2031
2009
1987
1959
1931
1902
1874
1846
1819
1788
1758
1712
1666
1598
1530
1446
1363
1295
1228
1213
1199
1270
1341
1495
1650
1854
2059
2257
2455
2594
2734
2790
2846
2831
2816
2766
2716
2669
2622
2597
2573
2566
2559
2547
2536
2504
2473
2419
2365
2304
2243
2192
2142
2112
2082
2065
2049
2032
2016
1986
1956
1913
1871
1825
1779
1741
1704
1672
1641
1602
1564
1501
1439
1352
1265
1177
1090
1057
1024
1057
1090
1231
1373
1590
1808
2045
2283
2477
2671
2780
2890
2910
2931
2893
2855
2800
2746
2707
2668
2649
2630
2616
2603
2574
2546
2495
2445
2382
2320
2266
2212
2181
2150
2142
2134
2132
2131
2118
2105
2072
2039
1993
1948
1904
1860
1828
1796
1769
1742
1705
1668
1603
1539
1454
1369
1291
1213
1188
1164
1228
1292
1450
1609
1827
2046
2266
2486
2648
2810
2884
2959
2951
2944
2890
2837
2776
2715
2671
2627
2597
2567
2535
2503
2454
2405
2339
2274
2206
2139
2091
2043
2020
1998
1995
1992
1987
1983
1962
1942
1902
1863
1817
1771
1731
1692
1662
1633
1600
1568
1513
1459
1376
1294
1202
1110
1067
1024
1026
1029
1142
1255
1448
1642
1865
2089
2283
2477
2596
2716
2750
2785
2755
2725
2666
2608
2548
2488
2437
2386
2339
2292
2240
2189
2133
2077
2027
1977
1943
1910
1898
1886
1886
1887
1887
1887
1875
1863
1840
1818
1792
1766
1742
1719
1693
1667
1627
1588
1524
1461
1383
1305
1240
1175
1164
1154
1227
1301
1458
1616
1822
2029
2229
2430
2573
2716
2779
2843
2835
2828
2783
2738
2687
2637
2598
2559
2528
2498
2464
2430
2384
2338
2285
2232
2182
2132
2096
2061
2039
2017
2001
1985
1963
1942
1911
1881
1844
1808
1773
1738
1703
1668
1625
1582
1521
1460
1383
1307
1237
1167
1139
1112
1161
1211
1348
1485
1684
1883
2093
2304
2468
2633
2718
2804
2809
2815
2772
2729
2676
2624
2588
2553
2536
2520
2507
2495
2466
2438
2389
2340
2279
2219
2166
2113
2078
2044
2026
2008
1991
1975
1946
1917
1871
1825
1770
1715
1664
1613
1575
1538
1511
1484
1459
1434
1404
1375
1349
1323
1319
1316
1358
1401
1497
1593
1729
1866
2009
2152
2265
2378
2437
2497
2506
2516
2495
2474
2451
2429
2420
2412
2416
2420
2423
2427
2415
2404
2375
2347
2311
2275
2246
2217
2203
2190
2187
2185
2181
2177
2158
2140
2104
2068
2023
1978
1936
1895
1864
1834
1809
1785
1754
1724
1678
1633
1579
1525
1485
1446
1450
1455
1523
1592
1720
1849
2009
2169
2317
2466
2568
2671
2712
2753
2746
2740
2710
2680
2652
2624
2606
2589
2576
2564
2541
2518
2478
2438
2386
2334
2286
2238
2209
2180
2174
2169
2175
2182
2185
2189
2175
2162
2134
2106
2073
2040
2016
1992
1976
1961
1942
1924
1882
1841
1768
1695
1603
1512
1439
1366
1352
1339
1411
1484
1634
1784
1971
2158
2323
2488
2586
2684
2699
2714
2667
2620
2550
2480
2423
2366
2336
2306
2296
2286
2275
2264
2232
2201
2150
2099
2046
1993
1954
1916
1899
1882
1873
1865
1847
1830
1789
1749
1688
1627
1560
1494
1437
1380
1333
1286
1234
1182
1109
1037
1030
1024
1024
1024
1024
1024
1024
1024
1156
1289
1488
1688
1897
2107
2276
2445
2544
2644
2671
2699
2681
2664
2632
2601
2579
2557
2546
2536
2527
2519
2499
2479
2445
2412
2374
2336
2308
2281
2269
2258
2259
2260
2259
2258
2242
2227
2194
2161
2119
2077
2036
1995
1960
1925
1886
1848
1794
1740
1661
1582
1489
1396
1315
1234
1199
1164
1198
1232
1333
1434
1576
1718
1864
2011
2128
2245
2319
2393
2427
2461
2468
2475
2466
2457
2435
2413
2376
2340
2291
2242
2188
2134
2091
2049
2029
2009
2013
2018
2036
2055
2072
2089
2093
2097
2086
2076
2057
2038
2016
1995
1970
1945
1909
1874
1822
1770
1707
1645
1594
1543
1533
1523
1575
1627
1741
1855
2005
2156
2302
2449
2555
2662
2711
2761
2760
2760
2730
2701
2664
2627
2594
2561
2529
2498
2462
2426
2382
2338
2291
2245
2203
2162
2133
2104
2085
2066
2050
2035
2016
1998
1974
1951
1925
1899
1874
1849
1821
1794
1756
1719
1665
1612
1550
1488
1438
1388
1380
1373
1429
1485
1606
1727
1887
2048
2205
2363
2477
2592
2645
2699
2697
2696
2665
2634
2599
2565
2542
2519
2504
2489
2470
2452
2420
2389
2346
2304
2261
2218
2185
2152
2133
2115
2105
2096
2083
2071
2049
2028
1997
1966
1934
1902
1874
1846
1819
1793
1756
1720
1666
1613
1546
1479
1421
1364
1348
1332
1383
1435
1555
1676
1839
2003
2165
2327
2445
2564
2617
2671
2667
2663
2628
2593
2557
2521
2498
2475
2463
2451
2435
2419
2387
2355
2308
2261
2212
2163
2125
2087
2065
2044
2034
2024
2013
2003
1979
1956
1920
1885
1847
1810
1781
1753
1731
1710
1683
1656
1606
1557
1482
1407
1324
1242
1192
1143
1165
1187
1299
1411
1594
1777
1984
2191
2364
2538
2641
2744
2769
2795
2767
2740
2693
2647
2606
2566
2537
2508
2480
2453
2414
2375
2323
2271
2215
2159
2114
2070
2042
2014
2000
1986
1973
1961
1942
1923
1895
1867
1837
1807
1778
1750
1719
1689
1645
1601
1534
1468
1386
1305
1237
1170
1154
1139
1206
1274
1424
1574
1774
1975
2170
2365
2506
2647
2709
2771
2764
2758
2715
2672
2626
2581
2548
2515
2490
2466
2435
2405
2359
2314
2256
2199
2144
2090
2053
2016
2000
1984
1977
1971
1960
1950
1925
1901
1867
1833
1796
1759
1727
1696
1662
1629
1583
1538
1471
1405
1329
1253
1196
1140
1143
1146
1235
1324
1494
1665
1879
2094
2296
2498
2636
2774
2828
2883
2866
2850
2800
2751
2704
2658
2633
2609
2599
2590
2577
2564
2530
2496
2442
2388
2326
2265
2215
2165
2136
2107
2094
2081
2069
2057
2034
2011
1973
1936
1894
1852
1815
1779
1751
1724
1695
1666
1621
1576
1507
1438
1357
1277
1217
1158
1159
1161
1247
1334
1502
1671
1882
2093
2293
2494
2633
2773
2832
2891
2880
2869
2823
2778
2731
2685
2659
2633
2623
2613
2602
2591
2561
2532
2480
2429
2366
2304
2249
2195
2161
2128
2113
2099
2089
2080
2061
2042
2005
1968
1921
1874
1829
1784
1752
1720
1694
1669
1635
1601
1541
1481
1396
1311
1223
1135
1088
1041
1073
1105
1232
1360
1560
1761
1985
2209
2396
2584
2693
2803
2828
2853
2818
2784
2729
2675
2632
2590
2567
2544
2530
2516
2490
2464
2418
2372
2312
2253
2199
2146
2114
2083
2076
2070
2074
2079
2076
2073
2049
2025
1983
1942
1898
1854
1820
1787
1763
1740
1711
1683
1630
1577
1496
1416
1326
1236
1178
1121
1138
1155
1267
1379
1567
1756
1973
2190
2376
2562
2674
2786
2816
2846
2817
2788
2738
2688
2645
2603
2575
2548
2525
2502
2466
2430
2376
2322
2259
2197
2144
2091
2059
2028
2017
2007
2002
1997
1983
1969
1938
1908
1869
1830
1794
1759
1734
1710
1687
1665
1626
1588
1520
1452
1362
1272
1192
1112
1088
1064
1131
1198
1359
1521
1741
1961
2180
2400
2561
2722
2795
2869
2863
2857
2808
2759
2705
2651
2617
2584
2566
2549
2532
2515
2478
2442
2385
2329
2264
2199
2146
2093
2062
2032
2021
2010
2003
1996
1977
1958
1922
1886
1840
1795
1752
1709
1675
1642
1610
1578
1532
1486
