0
1351
1317
1329
1342
1416
1491
1624
1757
1923
2090
2254
2419
2547
2675
2748
2821
2838
2855
2831
2807
2760
2714
2661
2608
2554
2501
2450
2400
2349
2299
2249
2199
2150
2101
2056
2011
1971
1931
1895
1859
1830
1802
1780
1758
1737
1717
1688
1660
1614
1568
1504
1441
1371
1302
1253
1204
1206
1208
1282
1357
1502
1648
1839
2031
2226
2421
2579
2737
2832
2927
2957
2987
2967
2947
2899
2852
2795
2739
2681
2623
2566
2509
2451
2394
2335
2276
2219
2163
2111
2059
2013
1968
1930
1893
1862
1832
1807
1783
1760
1738
1710
1682
1640
1599
1540
1481
1413
1346
1291
1236
1223
1211
1265
1319
1445
1572
1753
1934
2131
2328
2497
2667
2777
2888
2928
2969
2951
2933
2878
2824
2756
2689
2622
2555
2493
2431
2371
2311
2251
2191
2131
2071
2014
1957
1908
1860
1824
1788
1766
1744
1734
1725
1720
1715
1702
1689
1656
1623
1564
1505
1426
1348
1270
1192
1145
1099
1112
1125
1209
1293
1438
1583
1757
1931
2096
2261
2384
2508
2575
2643
2659
2676
2659
2642
2610
2578
2544
2511
2481
2452
2424
2397
2369
2341
2311
2281
2250
2219
2189
2159
2131
2103
2079
2056
2035
2015
1996
1977
1952
1927
1890
1853
1798
1744
1677
1610
1544
1478
1436
1395
1401
1408
1476
1544
1669
1794
1954
2115
2278
2441
2576
2712
2799
2886
2921
2956
2946
2937
2897
2857
2799
2742
2677
2613
2547
2481
2419
2357
2299
2242
2190
2138
2091
2044
2001
1958
1919
1881
1847
1814
1786
1758
1731
1704
1670
1636
1587
1538
1473
1408
1337
1266
1212
1159
1150
1141
1195
1250
1369
1489
1652
1816
1990
2165
2314
2463
2564
2666
2713
2761
2763
2766
2739
2712
2668
2624
2572
2520
2463
2406
2347
2289
2231
2173
2117
2062
2011
1960
1913
1867
1825
1784
1749
1714
1687
1661
1642
1623
1605
1588
1562
1537
1495
1454
1399
1344
1292
1240
1216
1193
1223
1253
1347
1441
1589
1737
1913
2090
2263
2437
2586
2736
2852
2969
3020
3071
3071
3071
3071
3071
3071
3071
3071
3071
3033
2996
2919
2842
2761
2681
2609
2537
2478
2419
2370
2322
2277
2232
2185
2138
2086
2035
1979
1923
1861
1799
1729
1659
1582
1505
1426
1348
1285
1222
1193
1165
1186
1207
1280
1353
1463
1573
1694
1816
1922
2028
2101
2175
2212
2249
2255
2262
2248
2235
2208
2181
2145
2109
2066
2023
1978
1933
1892
1852
1820
1788
1765
1742
1722
1703
1681
1659
1635
1611
1590
1570
1564
1558
1575
1593
1633
1673
1725
1777
1829
1881
1926
1971
2013
2055
2107
2160
2235
2311
2411
2512
2625
2739
2841
2944
3007
3071
3071
3071
3068
3065
3011
2958
2891
2824
2755
2686
2619
2552
2486
2420
2355
2291
2229
2167
2110
2054
2005
1957
1918
1879
1846
1814
1788
1762
1739
1716
1694
1672
1647
1622
1589
1557
1514
1472
1424
1376
1336
1296
1283
1271
1303
1336
1419
1502
1626
1751
1891
2032
2160
2289
2382
2476
2525
2574
2584
2595
2580
2566
2539
2513
2482
2452
2418
2385
2348
2312
2274
2236
2198
2161
2128
2096
2069
2043
2021
1999
1978
1958
1938
1919
1900
1881
1864
1847
1830
1813
1790
1768
1734
1701
1657
1613
1568
1523
1495
1468
1479
1490
1550
1611
1716
1822
1951
2081
2206
2331
2427
2524
2578
2633
2650
2667
2656
2646
2621
2596
2562
2529
2490
2451
2406
2361
2312
2264
2216
2169
2129
2090
2060
2030
2007
1985
1966
1948
1929
1911
1892
1874
1856
1838
1821
1804
1783
1763
1734
1705
1666
1627
1585
1543
1513
1484
1487
1490
1539
1588
1682
1776
1899
2022
2146
2270
2371
2472
2534
2596
2618
2640
2632
2624
2597
2570
2533
2496
2454
2412
2366
2321
2274
2228
2184
2140
2103
2067
2038
2009
1986
1964
1943
1922
1901
1880
1859
1839
1820
1802
1783
1765
1740
1716
1672
1629
1574
1519
1460
1401
1358
1316
1316
1317
1378
1439
1561
1683
1843
2004
2167
2331
2463
2596
2677
2759
2788
2818
2809
2801
2772
2743
2704
2665
2621
2578
2528
2478
2422
2367
2310
2254
2205
2157
2118
2080
2050
2020
1994
1968
1940
1913
1882
1851
1819
1787
1755
1724
1691
1659
1617
1576
1520
1464
1396
1329
1269
1210
1189
1169
1214
1260
1382
1505
1688
1872
2077
2283
2467
2651
2779
2907
2968
3029
3033
3038
3007
2977
2930
2884
2830
2777
2717
2658
2591
2525
2455
2385
2320
2256
2203
2150
2110
2071
2039
2008
1977
1947
1912
1878
1842
1806
1772
1738
1708
1678
1645
1612
1566
1520
1457
1394
1324
1254
1202
1150
1149
1149
1222
1295
1442
1589
1782
1975
2171
2368
2526
2684
2780
2877
2910
2943
2929
2916
2875
2835
2782
2729
2668
2607
2539
2471
2398
2325
2254
2184
2122
2061
2015
1969
1935
1902
1876
1850
1824
1799
1774
1749
1724
1700
1677
1655
1628
1602
1564
1526
1471
1417
1353
1289
1237
1186
1177
1168
1226
1285
1415
1546
1727
1909
2103
2298
2464
2630
2740
2850
2897
2945
2940
2936
2898
2860
2804
2749
2683
2618
2546
2474
2398
2323
2251
2179
2115
2052
2003
1954
1916
1879
1849
1819
1791
1763
1736
1709
1682
1656
1629
1603
1570
1537
1490
1443
1378
1314
1244
1174
1122
1071
1070
1070
1143
1217
1367
1518
1719
1921
2131
2342
2517
2693
2807
2921
2967
3014
3008
3003
2965
2928
2876
2824
2764
2705
2641
2578
2510
2442
2375
2309
2248
2187
2137
2087
2047
2007
1973
1939
1908
1877
1848
1819
1792
1766
1740
1714
1682
1650
1604
1558
1495
1432
1363
1295
1246
1197
1200
1203
1279
1356
1506
1657
1854
2052
2254
2456
2620
2785
2887
2989
3025
3061
3046
3032
2989
2946
2890
2834
2770
2707
2638
2570
2497
2424
2353
2282
2219
2156
2105
2055
2015
1976
1942
1909
1877
1845
1813
1782
1752
1722
1693
1665
1632
1599
1553
1508
1446
1384
1314
1244
1189
1134
1125
1116
1175
1234
1365
1497
1678
1860
2053
2246
2410
2574
2681
2789
2834
2879
2871
2864
2823
2782
2723
2665
2599
2533
2464
2395
2326
2257
2192
2128
2071
2014
1967
1921
1885
1849
1821
1794
1772
1751
1734
1717
1701
1686
1666
1646
1613
1581
1532
1483
1420
1357
1300
1243
1217
1191
1223
1256
1358
1461
1622
1783
1971
2160
2337
2514
2645
2777
2848
2919
2932
2945
2916
2888
2835
2783
2720
2657
2590
2523
2455
2388
2321
2255
2193
2131
2076
2021
1974
1927
1888
1849
1818
1787
1762
1738
1717
1696
1672
1648
1613
1579
1527
1475
1408
1341
1274
1208
1170
1132
1150
1169
1261
1353
1510
1668
1864
2060
2252
2444
2595
2747
2837
2928
2958
2988
2971
2955
2913
2871
2817
2763
2704
2646
2585
2524
2461
2399
2338
2278
2223
2168
2120
2073
2034
1995
1961
1928
1901
1874
1851
1828
1807
1786
1760
1734
1695
1657
1601
1545
1479
1413
1357
1302
1286
1271
1321
1371
1494
1617
1794
1972
2167
2362
2532
2702
2817
2932
2982
3033
3030
3028
2992
2956
2905
2854
2796
2738
2675
2612
2543
2474
2404
2335
2270
2206
2153
2101
2060
2019
1985
1951
1918
1885
1852
1819
1786
1754
1725
1697
1670
1643
1609
1575
1525
1475
1409
1343
1275
1208
1168
1129
1148
1168
1262
1357
1518
1679
1874
2069
2253
2438
2576
2714
2788
2862
2877
2892
2865
2839
2791
2743
2685
2628
2565
2502
2436
2370
2304
2239
2179
2120
2071
2023
1986
1949
1921
1894
1870
1846
1823
1800
1778
1756
1736
1716
1693
1670
1637
1604
1553
1502
1437
1373
1311
1250
1221
1193
1226
1259
1366
1473
1641
1810
2006
2202
2382
2562
2693
2824
2891
2959
2969
2979
2949
2920
2869
2819
2757
2696
2628
2561
2488
2416
2344
2272
2206
2141
2087
2033
1991
1950
1917
1884
1854
1824
1796
1768
1741
1714
1688
1662
1632
1603
1562
1522
1464
1406
1337
1268
1208
1149
1132
1115
1166
1218
1348
1479
1669
1860
2070
2281
2466
2652
2779
2907
2965
3024
3025
3027
2992
2958
2907
2857
2799
2742
2680
2619
2552
2486
2418
2351
2287
2224
2171
2119
2077
2036
2003
1970
1939
1909
1879
1849
1820
1792
1764
1737
1706
1676
1634
1593
1535
1478
1409
1340
1280
1220
1200
1180
1227
1274
1398
1522
1706
1890
2095
2301
2481
2662
2785
2909
2963
3018
3015
3012
2973
2934
2879
2824
2762
2700
2634
2569
2499
2430
2360
2290
2226
2162
2110
2058
2019
1980
1949
1918
1889
1861
1832
1804
1775
1746
1720
1694
1666
1639
1603
1567
1515
1463
1396
1330
1265
1200
1167
1134
1161
1189
1292
1395
1562
1729
1927
2125
2310
2495
2632
2769
2841
2913
2925
2938
2909
2880
2829
2779
2718
2658
2594
2530
2465
2400
2337
2275
2219
2163
2117
2072
2037
2002
1974
1947
1923
1899
1875
1852
1829
1807
1783
1759
1728
1698
1654
1611
1551
1491
1424
1357
1304
1251
1242
1233
1291
1349
1478
1608
1790
1972
2169
2367
2538
2709
2825
2941
2992
3043
3038
3034
2992
2950
2887
2825
2753
2681
2605
2530
2453
2377
2304
2231
2164
2097
2040
1983
1935
1888
1848
1809
1776
1744
1718
1693
1671
1650
1627
1605
1571
1537
1485
1434
1366
1298
1230
1162
1121
1081
1098
1115
1204
1293
1448
1604
1794
1985
2171
2357
2500
2643
2725
2808
2829
2850
2826
2802
2751
2701
2639
2578
2513
2449
2385
2321
2257
2194
2134
2074
2019
1964
1917
1870
1832
1794
1766
1738
1718
1699
1685
1671
1655
1639
1611
1583
1535
1488
1424
1360
1295
1230
1191
1152
1166
1180
1261
1343
1486
1629
1808
1988
2166
2344
2488
2633
2725
2817
2853
2890
2880
2871
2828
2786
2723
2661
2589
2518
2449
2380
2327
2274
2245
2217
2216
2215
2233
2252
2277
2303
2321
2340
2343
2347
2334
2321
2293
2265
2222
2180
2121
2062
1987
1912
1830
1749
1682
1615
1589
1564
1601
1638
1741
1844
1994
2145
2309
2473
2613
2754
2846
2938
2973
3009
2996
2983
2936
2889
2823
2757
2683
2609
2536
2464
2400
2336
2282
2229
2180
2132
2074
2017
1933
1849
1731
1614
1468
1323
1174
1025
1024
1024
1024
1024
1024
1024
1024
1024
1024
1024
1024
1024
1024
1024
1024
1024
1059
1095
1216
1338
1489
1640
1794
1949
2081
2213
2313
2413
2488
2563
2629
2696
2766
2836
2910
2984
3027
3071
3071
3071
3071
3071
3061
3051
2983
2916
2841
2767
2699
2632
2578
2524
2481
2438
2402
2366
2331
2296
2258
2221
2179
2137
2089
2042
1990
1939
1890
1841
1804
1767
1754
1742
1762
1782
1833
1885
1956
2028
2100
2172
2226
2280
2306
2332
2331
2330
2311
2292
2266
2241
2215
2190
2164
2139
2107
2076
2033
1990
1934
1878
1813
1748
1682
1617
1559
1501
1456
1412
1383
1354
1340
1326
1322
1318
1318
1318
1315
1313
1302
1291
1271
1251
1225
1200
1181
1162
1162
1162
1191
1221
1283
1346
1438
1530
1643
1756
1880
2005
2133
2261
2386
2511
2627
2743
2840
2938
3004
3071
3071
3071
3071
3071
3050
3030
2980
2930
2880
2831
2790
2750
2719
2688
2662
2636
2609
2583
2552
2522
2486
2451
2412
2373
2331
2289
2242
2196
2145
2095
2045
1996
1955
1915
1895
1875
1882
1889
1923
1958
2010
2063
2118
2173
2214
2256
2273
2291
2281
2272
2239
2207
2160
2113
2059
2005
1952
1900
1854
1809
1773
1737
1711
1685
1665
1646
1630
1614
1598
1582
1567
1552
1540
1529
1524
1520
1522
1524
1531
1538
1543
1549
1552
1555
1559
1564
1582
1600
1646
1693
1776
1859
1975
2092
2224
2356
2479
2603
2695
2788
2838
2889
2900
2912
2897
2883
2857
2832
2805
2779
2755
2731
2707
2683
2655
2628
2597
2566
2532
2498
2464
2431
2399
2367
2336
2305
2275
2245
2216
2187
2160
2134
2109
2085
2058
2032
1998
1965
1920
1876
1821
1767
1712
1658
1617
1576
1561
1547
1564
1582
1625
1668
1723
1779
1831
1883
1921
1959
1980
2002
2011
2020
2023
2026
2027
2028
2028
2028
2024
2020
2011
2003
1991
1980
1969
1958
1950
1943
1940
1937
1937
1937
1937
1938
1938
1939
1938
1938
1937
1937
1936
1935
1929
1924
1912
1901
1884
1868
1851
1835
1828
1821
1831
1842
1873
1904
1953
2002
2057
2113
2162
2212
2245
2279
2294
2310
2311
2313
2306
2300
2291
2282
2271
2261
2248
2235
2218
2202
2183
2165
2146
2128
2112
2096
2084
2072
2062
2052
2043
2035
2026
2018
2009
2001
1993
1986
1977
1969
1957
1946
1928
1910
1887
1865
1842
1820
1808
1796
1802
1808
1835
1863
1908
1954
2005
2056
2100
2145
2173
2201
2209
2218
2211
2205
2189
2174
2155
2136
2117
2099
2081
2063
2046
2029
2013
1998
1985
1972
1961
1951
1943
1935
1927
1920
1913
1906
1899
1892
1887
1882
1879
1876
1872
1869
1859
1850
1831
1812
1784
1756
1726
1696
1675
1655
1658
1662
1709
1757
1840
1924
2019
2115
2198
2281
2335
2389
2410
2432
2428
2425
2408
2391
2369
2347
2323
2299
2271
2244
2213
2183
2151
2119
2090
2062
2039
2016
1998
1980
1961
1942
1910
1879
1853
1827
1806
1785
1769
1753
1736
1720
1692
1664
1617
1571
1511
1451
1400
1350
1340
1330
1388
1446
1574
1703
1880
2057
2238
2419
2561
2703
2779
2856
2868
2880
2846
2813
2760
2707
2651
2596
2542
2489
2434
2380
2322
2265
2207
2149
2098
2047
2006
1966
1936
1907
1883
1859
1836
1814
1792
1770
1751
1732
1716
1700
1681
1663
1630
1597
1545
1494
1430
1367
1317
1267
1262
1258
1323
1389
1524
1660
1840
2020
2198
2377
2513
2649
2717
2786
2789
2793
2752
2711
2651
2591
2529
2468
2412
2357
2305
2253
2201
2150
2100
2050
2005
1960
1923
1886
1859
1833
1815
1797
1785
1774
1766
1759
1751
1743
1727
1712
1681
1651
1601
1552
1492
1432
1382
1332
1321
1311
1362
1413
1530
1647
1810
1973
2144
2315
2454
2594
2675
2757
2775
2794
2765
2737
2683
2629
2569
2510
2452
2395
2342
2289
2237
2185
2134
2083
2035
1987
1946
1905
1870
1835
1809
1783
1764
1745
1732
1719
1707
1696
1679
1663
1631
1599
1547
1496
1429
1363
1303
1244
1219
1195
1235
1275
1386
1497
1665
1834
2020
2206
2367
2529
2632
2736
2773
2810
2791
2773
2724
2676
2618
2561
2506
2451
2400
2350
2301
2252
2202
2152
2103
2055
2010
1966
1928
1890
1859
1829
1807
1785
1769
1753
1742
1732
1720
1708
1685
1662
1620
1578
1516
1454
1389
1324
1285
1246
1264
1283
1375
1467
1624
1782
1970
2159
2333
2507
2630
2753
2807
2862
2858
2854
2813
2772
2718
2665
2611
2557
2504
2451
2396
2342
2285
2229
2173
2118
2070
2023
1985
1947
1917
1887
1861
1835
1811
1787
1764
1742
1723
1705
1684
1663
1631
1600
1548
1496
1425
1354
1282
1211
1171
1132
1156
1181
1285
1390
1560
1730
1928
2126
2302
2478
2595
2712
2756
2800
2782
2765
2712
2659
2595
2532
2471
2411
2357
2303
2252
2201
2150
2099
2048
1998
1952
1906
1867
1829
1801
1773
1754
1735
1724
1714
1707
1700
1689
1678
1651
1624
1575
1527
1458
1390
1321
1252
1213
1174
1195
1217
1313
1410
1572
1734
1926
2119
2298
2477
2604
2732
2792
2853
2852
2851
2811
2771
2713
2656
2596
2537
2478
2420
2364
2308
2251
2195
2140
2086
2035
1985
1940
1896
1858
1820
1789
1759
1735
1711
1693
1676
1658
1640
1611
1582
1530
1478
1403
1328
1244
1161
1102
1043
1044
1046
1133
1220
1388
1556
1772
1989
2204
2419
2586
2753
2846
2939
2961
2984
2957
2931
2883
2835
2782
2730
2679
2629
2577
2526
2471
2416
2357
2299
2243
2187
2137
2087
2045
2004
1970
1936
1909
1882
1860
1838
1817
1797
1770
1743
1700
1658
1593
1529
1449
1370
1299
1228
1199
1192
1236
1321
1605
1794
1994
2402
2586
2738
2921
2969
3018
3007
2974
2928
2877
2790
2730
2671
2611
2552
2490
2429
2366
2304
2243
2183
2129
2075
2029
1984
1948
1912
1882
1853
1830
1807
1787
1767
1744
1722
1687
1653
1597
1542
1466
1390
1310
1230
1176
1123
1130
1137
1224
1312
1474
1636
1839
2043
2242
2442
2594
2747
2831
2915
2932
2949
2919
2889
2833
2777
2713
2649
2582
2515
2448
2381
2314
2248
2185
2123
2067
2012
1966
1920
1881
1843
1811
1779
1752
1725
1702
1680
1657
1634
1603
1572
1521
1470
1396
1322
1235
1149
1086
1024
1024
1024
1080
1137
1293
1449
1663
1878
2101
2325
2510
2696
2812
2928
2970
3012
2997
2983
2937
2892
2835
2779
2720
2662
2601
2541
2478
2416
2352
2289
2229
2169
2115
2062
2018
1974
1936
1898
1866
1834
1806
1778
1754
1730
1704
1678
1640
1602
1543
1484
1405
1327
1247
1167
1119
1072
1092
1113
1221
1330
1518
1706
1936
2166
2386
2607
2775
2943
3007
3071
3071
3071
3071
3071
3027
2984
2927
2871
2812
2754
2690
2627
2560
2494
2427
2361
2301
2241
2190
2140
2099
2058
2022
1986
1954
1923
1895
1867
1841
1816
1787
1759
1719
1679
1619
1560
1485
1411
1340
1270
1235
1200
1230
1260
1368
1476
1648
1821
2022
2223
2407
2591
2722
2853
2916
2980
2984
2988
2952
2917
2862
2807
2745
2683
2618
2554
2487
2421
2354
2288
2225
2162
2107
2052
2006
1960
1923
1887
1856
1826
1801
1777
1756
1735
1713
1692
1661
1630
1583
1536
1470
1405
1333
1262
1209
1157
1153
1150
1216
1282
1418
1555
1736
1918
2106
2294
2449
2604
2701
2799
2834
2869
2853
2838
2791
2745
2684
2624
2559
2495
2432
2369
2308
2247
2190
2133
2081
2030
1985
1941
1904
1868
1839
1810
1788
1767
1750
1734
1716
1698
1669
1640
1590
1540
1470
1401
1325
1250
1196
1143
1143
1144
1221
1298
1450
1603
1804
2006
2214
2423
2595
2768
2877
2986
3026
3066
3049
3033
2983
2934
2868
2803
2734
2666
2597
2529
2463
2397
2332
2268
2207
2146
2090
2035
1986
1938
1897
1856
1825
1794
1771
1748
1727
1707
1678
1649
1602
1555
1485
1416
1338
1260
1200
1140
1132
1124
1193
1263
1413
1563
1767
1971
2187
2403
2584
2765
2882
3000
3035
3071
3066
3061
3014
2967
2906
2845
2780
2715
2650
2585
2519
2454
2389
2325
2263
2202
2146
2091
2043
1996
1957
1918
1887
1857
1834
1812
1791
1771
1745
1720
1679
1638
1577
1517
1443
1369
1305
1242
1220
1198
1245
1293
1418
1544
1730
1916
2123
2331
2514
2698
2824
2950
3006
3062
3058
3054
3011
2969
2907
2846
2778
2711
2641
2572
2501
2431
2362
2293
2228
2164
2107
2051
2003
1956
1917
1878
1845
1813
1786
1759
1737
1716
1694
1673
1643
1614
1567
1521
1456
1392
1322
1253
1205
1158
1163
1168
1246
1325
1475
1625
1819
2013
2207
2402
2557
2712
2803
2894
2920
2946
2922
2898
2845
2793
2728
2663
2595
2528
2460
2392
2326
2261
2199
2138
2085
2032
1988
1945
1911
1877
1849
1821
1799
1777
1758
1739
1719
1699
1671
1644
1599
1555
1491
1428
1355
1283
1225
1168
1157
1147
1209
1271
1409
1548
1742
1936
2144
2352
2529
2706
2822
2938
2985
3032
3022
3012
2967
2922
2860
2798
2729
2661
2589
2518
2444
2371
2299
2228
2164
2100
2046
1993
1949
1905
1868
1831
1797
1764
1733
1702
1674
1646
1618
1591
1556
1521
1470
1419
1349
1280
1205
1130
1078
1027
1033
1039
1125
1211
1376
1541
1754
1968
2183
2399
2570
2741
2842
2944
2973
3003
2980
2957
2904
2852
2789
2726
2659
2593
2523
2454
2381
2309
2238
2167
2102
2038
1984
1931
1886
1842
1803
1764
1727
1690
1654
1619
1586
1553
1520
1488
1450
1412
1358
1305
1233
1162
1093
1024
1024
1024
1024
1024
1059
1095
1245
1395
1596
1797
2011
2225
2413
2601
2737
2873
2949
3025
3048
3071
3056
3042
3003
2964
2911
2859
2799
2739
2677
2616
2559
2503
2455
2408
2369
2331
2298
2265
2232
2199
2163
2127
2090
2054
2019
1985
1953
1921
1886
1851
1806
1762
1706
1650
1591
1533
1493
1453
1455
1457
1517
1578
1694
1811
1961
2112
2264
2416
2537
2658
2732
2806
2831
2857
2845
2833
2798
2763
2715
2668
2613
2558
2498
2438
2376
2314
2256
2199
2151
2103
2066
2029
2002
1975
1954
1933
1915
1897
1882
1868
1857
1846
1836
1827
1810
1794
1762
1730
1679
1629
1570
1512
1467
1423
1419
1415
1469
1523
1636
1749
1898
2047
2200
2354
2479
2604
2682
2760
2789
2819
2812
2805
2775
2746
2705
2664
2616
2568
2514
2461
2404
2348
2293
2238
2189
2141
2102
2064
2033
2003
1977
1951
1926
1901
1877
1853
1831
1809
1788
1767
1741
1716
1681
1646
1599
1552
1503
1454
1422
1390
1398
1406
1470
1534
1652
1770
1922
2075
2230
2386
2515
2644
2728
2813
2851
2889
2890
2892
2869
2847
2811
2776
2731
2687
2637
2587
2533
2480
2428
2376
2329
2282
2243
2204
2169
2135
2101
2067
2029
1991
1946
1901
1847
1793
1727
1662
1583
1505
1414
1323
1226
1130
1077
1024
1024
1024
1024
1024
1082
1140
1265
1390
1534
1678
1811
1945
2046
2148
2209
2270
2293
2317
2314
2312
2292
2273
2244
2216
2180
2145
2106
2068
2029
1991
1956
1922
1893
1865
1842
1820
1800
1781
1763
1746
1731
1716
1704
1692
1682
1672
1657
1643
1616
1590
1548
1506
1456
1406
1367
1329
1327
1325
1379
1433
1546
1659
1813
1967
2129
2291
2428
2566
2656
2746
2784
2823
2819
2816
2787
2759
2719
2679
2636
2593
2547
2502
2456
2410
2363
2317
2273
2230
2192
2154
2122
2090
2062
2035
2012
1990
1971
1952
1935
1918
1898
1879
1851
1823
1781
1739
1686
1634
1582
1530
1501
1473
1488
1504
1574
1645
1764
1883
2026
2169
2304
2440
2540
2641
2693
2746
2753
2760
2734
2708
2665
2623
2574
2525
2476
2427
2377
2328
2279
2231
2184
2138
2096
2054
2018
1982
1954
1926
1905
1884
1869
1854
1842
1831
1817
1804
1782
1761
1726
1692
1646
1601
1555
1510
1482
1455
1465
1476
1536
1596
1701
1807
1939
2072
2203
2334
2437
2540
2601
2662
2679
2696
2678
2661
2623
2585
2538
2491
2441
2392
2343
2294
2246
2199
2155
2111
2072
2033
1999
1966
1938
1910
1885
1860
1837
1815
1797
1779
1759
1740
