0
2277
2332
2382
2432
2475
2519
2553
2588
2609
2630
2634
2638
2624
2610
2580
2551
2512
2473
2434
2396
2366
2336
2320
2304
2296
2289
2287
2285
2281
2278
2269
2261
2247
2233
2216
2199
2180
2161
2141
2122
2100
2078
2054
2030
2006
1983
1967
1952
1951
1951
1971
1992
2034
2076
2133
2190
2251
2313
2370
2428
2473
2519
2551
2584
2602
2620
2623
2627
2614
2601
2571
2541
2497
2454
2404
2354
2309
2264
2233
2202
2189
2177
2178
2180
2185
2191
2191
2191
2179
2167
2145
2124
2099
2074
2053
2033
2017
2001
1986
1971
1950
1930
1901
1873
1839
1806
1780
1755
1747
1740
1757
1775
1813
1852
1899
1946
1986
2027
2052
2077
2084
2091
2085
2080
2069
2059
2049
2039
2028
2018
2001
1985
1960
1935
1900
1866
1826
1787
1748
1710
1675
1641
1609
1578
1545
1513
1477
1442
1402
1362
1319
1276
1230
1184
1137
1090
1057
1024
1024
1024
1024
1024
1024
1024
1024
1024
1024
1024
1071
1119
1192
1266
1334
1402
1450
1499
1522
1545
1546
1548
1537
1526
1514
1502
1496
1491
1494
1498
1508
1519
1533
1548
1561
1575
1584
1594
1596
1599
1594
1589
1578
1567
1555
1543
1537
1531
1536
1542
1557
1573
1591
1609
1616
1623
1608
1593
1555
1517
1466
1416
1373
1331
1320
1309
1343
1377
1458
1539
1652
1766
1892
2018
2133
2249
2341
2433
2495
2557
2590
2624
2633
2643
2634
2625
2603
2582
2553
2525
2495
2466
2441
2417
2400
2383
2373
2364
2358
2352
2346
2340
2330
2321
2306
2292
2272
2252
2227
2203
2173
2144
2110
2076
2041
2007
1979
1952
1940
1929
1940
1952
1988
2025
2080
2136
2198
2261
2318
2376
2419
2462
2489
2516
2529
2542
2546
2551
2547
2544
2533
2523
2501
2480
2448
2417
2379
2341
2304
2267
2237
2207
2187
2168
2158
2149
2145
2141
2138
2135
2129
2124
2114
2105
2090
2076
2053
2031
1998
1966
1922
1878
1828
1779
1734
1689
1663
1638
1643
1648
1686
1725
1789
1853
1927
2001
2066
2132
2176
2221
2241
2261
2264
2267
2263
2259
2258
2257
2261
2266
2273
2280
2282
2285
2278
2271
2254
2237
2216
2196
2179
2163
2151
2140
2138
2136
2140
2145
2148
2151
2147
2144
2130
2117
2097
2078
2055
2033
2009
1986
1960
1935
1902
1870
1829
1789
1747
1706
1676
1647
1648
1649
1691
1734
1819
1904
2018
2132
2252
2372
2472
2573
2640
2707
2737
2768
2771
2774
2764
2755
2743
2732
2724
2717
2715
2714
2710
2706
2694
2683
2663
2643
2619
2595
2569
2544
2521
2499
2478
2457
2436
2415
2389
2363
2329
2296
2252
2209
2160
2111
2061
2012
1969
1926
1892
1859
1832
1805
1774
1744
1700
1656
1592
1528
1453
1379
1313
1248
1217
1187
1211
1235
1316
1398
1522
1646
1784
1922
2045
2168
2259
2350
2403
2457
2481
2505
2510
2516
2510
2505
2493
2481
2464
2448
2428
2409
2392
2375
2360
2346
2331
2317
2292
2267
2225
2183
2121
2060
1989
1918
1852
1787
1743
1699
1679
1659
1655
1651
1648
1645
1631
1618
1593
1568
1544
1521
1510
1499
1506
1513
1529
1546
1556
1566
1557
1549
1528
1507
1493
1479
1499
1520
1590
1660
1775
1891
2024
2157
2271
2385
2452
2519
2533
2548
2524
2501
2466
2431
2405
2379
2370
2361
2358
2356
2345
2335
2305
2276
2231
2186
2139
2093
2067
2042
2052
2062
2112
2162
2238
2315
2394
2473
2524
2576
2578
2580
2520
2460
2345
2230
2080
1930
1773
1616
1477
1338
1233
1129
1076
1024
1024
1024
1024
1024
1037
1051
1117
1184
1285
1386
1518
1650
1800
1950
2097
2244
2366
2489
2571
2654
2692
2730
2729
2729
2701
2674
2630
2586
2533
2481
2425
2369
2312
2255
2201
2147
2101
2055
2020
1986
1965
1944
1935
1926
1927
1929
1935
1942
1949
1957
1959
1961
1952
1944
1920
1897
1858
1820
1768
1717
1659
1601
1540
1479
1417
1355
1289
1224
1155
1087
1055
1024
1024
1024
1024
1024
1024
1024
1093
1163
1283
1403
1536
1670
1793
1916
2011
2107
2171
2236
2277
2318
2351
2384
2422
2460
2507
2555
2609
2663
2716
2769
2812
2856
2887
2918
2933
2949
2950
2952
2938
2925
2897
2869
2828
2787
2740
2693
2647
2602
2565
2528
2500
2472
2446
2421
2384
2347
2284
2222
2123
2025
1891
1758
1599
1441
1279
1118
1071
1024
1024
1024
1024
1024
1045
1067
1215
1363
1555
1748
1952
2157
2336
2515
2634
2753
2794
2836
2804
2773
2692
2612
2517
2423
2348
2273
2236
2199
2200
2201
2223
2245
2266
2288
2290
2293
2269
2245
2202
2160
2114
2069
2037
2006
2001
1997
2020
2044
2088
2132
2181
2231
2270
2310
2327
2345
2336
2327
2294
2261
2213
2166
2115
2064
2021
1978
1950
1922
1913
1904
1913
1922
1945
1969
2000
2032
2064
2097
2123
2150
2164
2178
2176
2174
2157
2141
2113
2086
2056
2026
2002
1979
1972
1965
1982
2000
2045
2091
2161
2231
2315
2400
2480
2561
2619
2677
2695
2713
2688
2664
2605
2546
2475
2404
2345
2287
2259
2232
2238
2245
2275
2305
2337
2369
2382
2396
2380
2364
2320
2276
2215
2154
2090
2027
1973
1920
1885
1850
1835
1821
1829
1837
1865
1893
1936
1979
2030
2082
2131
2181
2218
2256
2278
2300
2308
2317
2319
2321
2325
2330
2342
2354
2372
2391
2410
2430
2444
2458
2465
2473
2475
2477
2479
2482
2486
2490
2494
2498
2497
2496
2485
2475
2454
2433
2407
2382
2360
2338
2327
2317
2318
2320
2331
2342
2352
2363
2365
2367
2355
2344
2319
2294
2260
2227
2192
2157
2120
2084
2058
2032
2023
2015
2029
2043
2078
2113
2165
2218
2277
2337
2389
2441
2472
2503
2507
2512
2491
2470
2432
2394
2350
2306
2266
2226
2194
2163
2139
2116
2095
2075
2051
2028
1997
1967
1930
1894
1857
1820
1790
1760
1743
1727
1724
1721
1723
1726
1723
1720
1701
1682
1643
1604
1551
1499
1447
1395
1356
1317
1297
1277
1271
1265
1262
1259
1249
1240
1223
1207
1192
1178
1183
1188
1224
1261
1329
1397
1483
1570
1654
1739
1803
1867
1902
1938
1949
1960
1958
1956
1952
1948
1947
1947
1948
1949
1947
1945
1935
1926
1912
1899
1885
1871
1860
1850
1842
1835
1828
1822
1812
1802
1787
1773
1756
1739
1725
1711
1704
1697
1698
1700
1706
1713
1720
1727
1729
1731
1724
1718
1702
1686
1661
1637
1606
1576
1548
1521
1505
1490
1498
1507
1546
1585
1653
1722
1810
1899
1989
2079
2152
2226
2270
2314
2325
2337
2325
2314
2291
2269
2249
2229
2217
2206
2202
2198
2196
2195
2190
2186
2176
2166
2152
2139
2125
2112
2103
2094
2089
2085
2084
2084
2083
2083
2080
2077
2070
2063
2053
2043
2029
2016
1998
1980
1954
1929
1893
1858
1813
1769
1722
1676
1636
1597
1577
1558
1564
1571
1602
1634
1679
1725
1768
1812
1839
1866
1870
1875
1859
1844
1818
1792
1763
1735
1709
1683
1655
1628
1592
1557
1508
1459
1398
1338
1270
1203
1136
1070
1047
1024
1024
1024
1024
1024
1024
1024
1024
1024
1024
1024
1024
1024
1024
1024
1024
1024
1024
1024
1024
1024
1037
1051
1070
1090
1110
1131
1153
1175
1198
1221
1243
1266
1288
1311
1335
1360
1393
1427
1474
1522
1587
1653
1731
1809
1891
1973
2047
2121
2178
2235
2274
2313
2337
2362
2380
2398
2417
2436
2457
2479
2502
2526
2546
2567
2582
2597
2605
2614
2618
2623
2625
2628
2629
2630
2627
2625
2617
2610
2595
2580
2560
2540
2518
2497
2476
2456
2439
2423
2409
2395
2382
2369
2355
2341
2326
2312
2299
2286
2276
2267
2260
2254
2246
2239
2226
2214
2193
2173
2147
2121
2097
2073
2061
2050
2058
2067
2096
2125
2168
2211
2256
2302
2338
2374
2395
2417
2424
2432
2432
2433
2433
2433
2438
2443
2451
2459
2467
2476
2480
2485
2484
2484
2479
2474
2467
2460
2454
2448
2444
2441
2438
2436
2435
2435
2435
2435
2437
2439
2442
2446
2448
2451
2450
2450
2443
2437
2423
2410
2391
2372
2350
2329
2308
2287
2268
2249
2231
2214
2198
2182
2167
2152
2142
2132
2131
2130
2141
2152
2174
2197
2225
2254
2281
2308
2326
2345
2351
2358
2354
2350
2341
2332
2324
2316
2312
2308
2308
2308
2309
2310
2308
2306
2298
2291
2278
2266
2249
2233
2216
2200
2186
2172
2160
2149
2141
2133
2126
2119
2113
2107
2099
2092
2084
2076
2067
2058
2050
2042
2035
2028
2022
2017
2010
2004
1993
1983
1968
1953
1934
1915
1895
1875
1858
1841
1828
1816
1805
1794
1780
1767
1748
1730
1708
1687
1670
1653
1650
1648
1669
1691
1737
1784
1848
1912
1978
2045
2100
2156
2192
2228
2245
2263
2262
2261
2252
2243
2234
2226
2223
2220
2220
2221
2221
2222
2218
2215
2207
2199
2184
2170
2150
2130
2104
2078
2047
2017
1985
1953
1924
1896
1874
1853
1841
1829
1824
1819
1816
1813
1807
1801
1789
1778
1760
1743
1721
1700
1676
1652
1627
1603
1578
1553
1530
1508
1488
1469
1453
1438
1423
1408
1387
1366
1330
1294
1243
1192
1135
1079
1051
1024
1024
1024
1063
1102
1208
1314
1455
1596
1742
1888
2009
2130
2207
2284
2317
2351
2356
2361
2361
2362
2376
2391
2429
2467
2524
2581
2647
2713
2772
2831
2871
2912
2925
2939
2922
2905
2859
2813
2744
2675
2593
2512
2431
2350
2282
2215
2169
2123
2101
2079
2077
2076
2085
2095
2107
2119
2120
2122
2106
2091
2050
2009
1944
1880
1797
1714
1629
1544
1479
1414
1390
1366
1396
1427
1510
1593
1710
1827
1949
2072
2172
2273
2333
2393
2409
2426
2411
2397
2367
2337
2309
2281
2261
2241
2230
2219
2210
2201
2189
2178
2158
2139
2113
2088
2058
2028
1997
1967
1937
1908
1882
1857
1835
1814
1797
1781
1768
1755
1746
1737
1729
1722
1715
1709
1700
1691
1677
1663
1638
1614
1576
1538
1487
1436
1380
1325
1279
1233
1216
1200
1228
1256
1333
1410
1524
1638
1764
1891
2000
2109
2178
2247
2268
2289
2272
2256
2223
2190
2166
2142
2139
2137
2159
2182
2216
2251
2283
2315
2329
2343
2334
2325
2294
2263
2219
2176
2130
2084
2045
2007
1982
1957
1950
1944
1955
1967
1994
2021
2055
2090
2121
2153
2171
2189
2188
2188
2169
2151
2122
2094
2066
2039
2021
2004
1996
1988
1983
1979
1964
1950
1919
1888
1843
1798
1753
1708
1684
1660
1674
1688
1743
1798
1882
1967
2057
2147
2218
2290
2328
2367
2372
2377
2358
2339
2313
2287
2264
2242
2229
2217
2212
2207
2206
2205
2206
2208
2212
2217
2227
2238
2257
2276
2302
2328
2358
2388
2416
2444
2464
2485
2493
2502
2496
2490
2469
2449
2418
2388
2353
2318
2285
2252
2224
2196
2171
2146
2116
2087
2046
2006
1951
1897
1836
1776
1724
1672
1647
1622
1634
1646
1692
1739
1806
1873
1939
2005
2051
2098
2118
2139
2136
2133
2121
2109
2098
2088
2087
2086
2093
2101
2110
2120
2125
2130
2127
2124
2116
2109
2102
2096
2097
2099
2113
2127
2149
2172
2196
2221
2233
2245
2233
2222
2179
2137
2067
1997
1910
1824
1740
1656
1591
1526
1490
1454
1451
1448
1468
1488
1516
1544
1564
1584
1586
1588
1565
1543
1497
1451
1385
1319
1239
1160
1092
1024
1024
1024
1024
1024
1024
1024
1085
1147
1259
1371
1494
1618
1729
1840
1923
2006
2057
2108
2133
2159
2172
2186
2197
2209
2220
2231
2240
2249
2249
2249
2239
2230
2213
2197
2181
2165
2155
2145
2144
2143
2146
2150
2156
2162
2166
2170
2173
2177
2181
2186
2193
2201
2209
2218
2223
2229
2228
2228
2221
2214
2203
2192
2183
2174
2169
2164
2163
2163
2162
2162
2160
2159
2158
2158
2167
2176
2204
2232
2286
2340
2415
2490
2577
2665
2748
2832
2899
2967
3012
3058
3064
3071
3071
3071
3071
3071
3071
3071
3071
3071
3042
3014
2973
2932
2884
2836
2790
2745
2707
2669
2643
2618
2603
2589
2581
2574
2567
2560
2548
2536
2514
2493
2459
2426
2382
2338
2288
2239
2191
2143
2105
2067
2041
2016
2001
1986
1972
1959
1938
1918
1884
1851
1810
1770
1735
1701
1690
1680
1703
1727
1786
1845
1926
2008
2092
2176
2244
2313
2355
2398
2413
2429
2427
2425
2415
2405
2395
2386
2379
2372
2365
2359
2346
2334
2313
2292
2259
2226
2183
2141
2091
2041
1989
1937
1885
1834
1787
1740
1699
1659
1627
1595
1573
1552
1543
1535
1542
1550
1572
1594
1624
1654
1683
1712
1726
1740
1732
1725
1695
1666
1627
1588
1557
1526
1521
1517
1547
1578
1639
1700
1774
1848
1912
1977
2012
2048
2046
2045
2010
1976
1921
1867
1806
1745
1688
1632
1583
1534
1492
1450
1412
1374
1338
1303
1271
1239
1212
1186
1164
1143
1124
1105
1083
1061
1042
1024
1024
1024
1024
1024
1024
1024
1024
1024
1024
1024
1024
1024
1024
1024
1024
1024
1024
1024
1024
1024
1024
1024
1024
1024
1024
1024
1024
1024
1051
1078
1152
1227
1312
1397
1479
1562
1631
1701
1751
1802
1835
1869
1891
1913
1931
1950
1970
1991
2016
2041
2066
2092
2112
2133
2143
2153
2150
2147
2133
2119
2097
2076
2053
2031
2012
1993
1980
1968
1964
1960
1963
1966
1974
1982
1991
2001
2006
2011
2008
2006
1993
1980
1960
1941
1921
1902
1893
1885
1894
1904
1936
1969
2018
2068
2125
2183
2236
2289
2329
2369
2391
2414
2420
2427
2422
2417
2406
2396
2383
2370
2357
2345
2333
2321
2312
2303
2298
2293
2293
2294
2300
2306
2314
2323
2329
2336
2337
2338
2331
2325
2313
2301
2288
2275
2266
2258
2259
2260
2270
2281
2297
2314
2329
2345
2352
2359
2352
2345
2326
2308
2286
2264
2251
2239
2248
2258
2295
2333
2396
2459
2535
2611
2683
2755
2806
2858
2880
2903
2897
2891
2867
2844
2814
2785
2759
2733
2713
2693
2673
2654
2626
2599
2557
2515
2458
2402
2336
2271
2206
2141
2085
2030
1989
1948
1920
1892
1872
1853
1837
1821
1804
1787
1769
1751
1732
1714
1697
1681
1667
1654
1643
1632
1625
1618
1615
1612
1615
1619
1630
1642
1660
1679
1703
1728
1753
1779
1802
1825
1845
1866
1886
1906
1927
1949
1974
1999
2027
2056
2083
2110
2131
2152
2161
2171
2168
2165
2153
2142
2128
2114
2105
2096
2096
2097
2106
2116
2128
2140
2148
2157
2155
2154
2140
2126
2103
2081
2055
2030
2007
1985
1968
1952
1939
1926
1913
1900
1883
1866
1844
1823
1803
1784
1773
1763
1769
1775
1801
1827
1870
1913
1965
2018
2070
2123
2169
2216
2253
2290
2317
2345
2365
2385
2399
2413
2421
2429
2432
2435
2433
2432
2428
2425
2421
2418
2415
2412
2409
2406
2401
2397
2387
2378
2364
2350
2332
2315
2297
2279
2262
2245
2231
2217
2205
2193
2182
2171
2159
2148
2134
2120
2101
2082
2055
2029
1992
1955
1909
1864
1815
1766
1722
1679
1652
1625
1623
1622
1647
1672
1718
1764
1818
1873
1922
1972
2007
2042
2060
2078
2082
2086
2084
2082
2079
2077
2077
2077
2079
2081
2082
2084
2082
2081
2075
2069
2059
2050
2042
2035
2029
2024
2020
2016
2010
2004
1996
1989
1980
1972
1966
1961
1960
1959
1961
1964
1964
1964
1956
1948
1930
1912
1886
1860
1832
1804
1780
1757
1737
1718
1697
1677
1653
1630
1600
1570
1538
1507
1489
1472
1484
1496
1551
1606
1701
1796
1916
2036
2156
2277
2376
2476
2543
2610
2648
2686
2706
2726
2740
2755
2769
2783
2796
2810
2816
2823
2820
2817
2806
2795
2784
2774
2769
2765
2769
2774
2780
2787
2786
2786
2768
2751
2713
2676
2622
2569
2507
2445
2381
2318
2256
2195
2135
2076
2018
1961
1907
1853
1805
1758
1717
1677
1639
1602
1558
1514
1454
1394
1315
1237
1153
1069
1046
1024
1024
1024
1032
1041
1152
1263
1415
1567
1731
1895
2039
2183
2288
2394
2456
2519
2548
2578
2591
2604
2613
2622
2632
2643
2652
2661
2662
2663
2651
2640
2613
2587
2551
2515
2474
2433
2395
2357
2325
2293
2269
2246
2230
2215
2206
2197
2192
2187
2182
2178
2170
2163
2148
2134
2110
2087
2055
2023
1985
1948
1911
1875
1845
1815
1794
1774
1760
1746
1732
1718
1692
1666
1623
1581
1523
1465
1404
1344
1300
1257
1251
1245
1286
1328
1413
1498
1607
1717
1825
1933
2016
2099
2145
2192
2205
2218
2209
2201
2185
2170
2158
2147
2140
2133
2129
2126
2121
2116
2110
2105
2100
2096
2097
2099
2106
2114
2125
2136
2145
2154
2157
2161
2157
2154
2147
2140
2132
2125
2119
2114
2110
2106
2102
2098
2090
2083
2074
2066
2056
2047
2038
2030
2018
2006
1987
1969
1940
1911
1874
1837
1802
1767
1748
1730
1741
1752
1797
1843
1917
1991
2077
2164
2244
2325
2386
2447
2483
2519
2535
2552
2557
2563
2566
2570
2573
2576
2577
2578
2570
2563
2545
2528
2501
2474
2444
2415
2388
2362
2343
2325
2313
2302
2293
2284
2272
2261
2244
2227
2205
2183
2162
2141
2126
2111
2104
2098
2096
2095
2092
2089
2073
2058
2024
1991
1940
1890
1830
1771
1713
1655
1607
1560
1524
1488
1460
1432
1405
1379
1353
1328
1310
1293
1297
1302
1338
1375
1449
1523
1623
1724
1832
1941
2034
2128
2191
2255
2284
2313
2315
2317
2305
2293
2278
2263
2250
2238
2227
2216
2201
2186
2165
2144
2115
2087
2056
2026
1997
1969
1947
1926
1912
1899
1892
1886
1882
1879
1878
1877
1873
1869
1859
1850
1830
1810
1776
1742
1691
1641
1578
1516
1450
1384
1327
1271
1236
1201
1191
1182
1191
1201
1213
1225
1221
1217
1185
1153
1095
1037
1030
1024
1024
1024
1024
1024
1024
1024
1052
1080
1149
1218
1282
1346
1394
1443
1474
1506
1525
1545
1561
1578
1594
1610
1624
1638
1641
1644
1628
1612
1571
1530
1466
1402
1322
1242
1157
1072
1048
1024
1024
1024
1024
1024
1024
1024
1050
1076
1161
1246
1351
1457
1575
1694
1818
1942
2067
2192
2312
2432
2543
2654
2747
2840
2908
2977
3014
3052
3058
3064
3042
3021
2984
2948
2907
2867
2832
2798
2773
2749
2733
2718
2706
2694
2680
2667
2647
2628
2599
2570
2530
2491
2440
2390
2330
2271
2205
2140
2075
2010
1955
1901
1863
1825
1808
1791
1790
1789
1793
1798
1794
1790
1766
1743
1697
1651
1590
1529
1467
1406
1362
1318
1303
1288
1303
1319
1356
1394
1440
1486
1527
1569
1601
1633
1658
1684
1715
1746
1792
1838
1904
1971
2051
2132
2214
2297
2365
2434
2478
2523
2542
2561
2562
2563
2557
2551
2549
2548
2555
2563
2575
2588
2596
2605
2600
2595
2570
2545
2502
2460
2405
2351
2295
2239
2190
2142
2108
2075
2058
2041
2040
2040
2052
2065
2084
2104
2124
2145
2157
2170
2167
2165
2145
2125
2090
2056
2016
1976
1944
1913
1902
1892
1909
1927
1971
2015
2075
2136
2200
2265
2320
2375
2411
2448
2462
2476
2469
2462
2437
2413
2378
2343
2305
2267
2232
2197
2168
2140
2119
2099
2081
2064
2047
2031
2013
1996
1984
1972
1974
1977
2003
2029
2079
2130
2197
2265
2330
2395
2435
2476
2478
2480
2444
2409
2352
2296
2247
2198
2185
2173
2215
2257
2354
2451
2587
2723
2868
3013
3042
3071
3071
3071
3071
3071
3071
3071
3031
2992
2928
2864
2816
2769
2746
2724
2725
2727
2742
2757
2773
2790
2794
2799
2786
2774
2745
2716
2676
2636
2592
2548
2505
2462
2421
2381
2345
2309
2276
2243
2213
2183
2154
2125
2095
2066
2033
2000
1962
1925
1883
1842
1803
1765
1737
1710
1702
1695
1711
1728
1765
1802
1851
1900
1947
1994
2029
2064
2081
2098
2098
2099
2090
2082
2072
2062
2057
2053
2055
2058
2065
2073
2079
2085
2082
2079
2059
2040
2002
1965
1910
1855
1789
1724
1657
1591
1535
1479
1442
1406
1394
1382
1392
1403
1429
1455
1483
1512
1532
1553
1555
1557
1539
1522
1487
1453
1413
1373
1339
1306
1292
1278
1291
1304
1345
1386
1450
1514
1590
1667
1745
1824
1894
1965
2022
2080
2125
2170
2204
2238
2265
2293
2314
2336
2352
2369
2379
2390
2395
2400
2401
2402
2401
2401
2402
2403
2405
2408
2410
2412
2408
2404
2391
2378
2355
2333
2304
2276
2249
2222
2202
2183
2173
2163
2158
2154
2148
2142
2125
2108
2078
2048
2007
1966
1925
1884
1855
1826
1820
1814
1833
1852
1892
1932
1982
2033
2081
2129
2164
2199
2213
2227
2217
2208
2178
2149
2104
2060
2008
1957
1909
1862
1832
1803
1798
1794
1816
1838
1878
1918
1964
2011
2050
2089
2111
2134
2136
2138
2122
2106
2078
2051
2021
1991
1967
1943
1930
1917
1916
1915
1921
1927
1930
1934
1925
1917
1888
1859
1812
1765
1710
1656
1613
1570
1556
1543
1568
1594
1656
1718
1800
1883
1964
2046
2105
2164
2189
2215
2207
2199
2166
2134
2090
2047
2005
1963
1931
1899
1880
1861
1854
1848
1851
1854
1863
1873
1885
1898
1911
1924
1934
1944
1949
1955
1954
1953
1944
1936
1919
1891
1869
1845
1796
1774
1754
1727
1713
1699
1683
1655
1630
1597
1535
1479
1424
1363
1303
1254
1205
1180
1155
1167
1180
1226
1273
1342
1412
1488
1564
1637
1710
1778
1847
1915
1984
2058
2172
2252
2329
2441
2496
2552
2574
2597
2585
2573
2534
2496
2451
2407
2376
2345
2343
2341
2373
2406
2466
2527
2604
2681
2759
2837
2900
2964
3001
3039
3043
3047
3018
2989
2938
2887
2832
2778
2743
2709
2715
2722
2774
2826
2909
2992
3031
3071
3071
3071
3065
3060
2925
2790
2592
2394
2172
1950
1748
1546
1399
1252
1172
1093
1070
1047
1052
1057
1060
1064
1045
1026
1025
1024
1024
1024
1024
1024
1024
1024
1024
1024
1024
1024
1036
1049
1093
1137
1176
1216
1246
1276
1294
1313
1323
1333
1340
1347
1360
1374
1402
1431
1480
1529
1598
1667
1748
1829
1909
1990
2056
2123
2165
2208
2225
2242
2239
2236
2223
2210
2199
2189
2188
2188
2201
2214
2237
2260
2288
2316
2343
2371
2394
2418
2436
2455
2468
2482
2492
2502
2508
2515
2517
2519
2517
2515
2509
2504
2497
2490
2483
2476
2471
2466
2463
2460
2455
2451
2443
2436
2423
2411
2396
2381
2368
2356
2351
2347
2354
2362
2380
2398
2422
2447
2469
2492
2506
2520
2520
2520
