0
1283
1397
1560
1724
1902
2080
2231
2382
2475
2569
2599
2629
2610
2592
2553
2515
2484
2453
2442
2432
2443
2454
2475
2496
2517
2539
2551
2564
2567
2570
2562
2554
2537
2520
2493
2467
2434
2401
2364
2328
2296
2264
2241
2218
2205
2193
2185
2178
2169
2161
2145
2130
2107
2084
2057
2030
2004
1979
1954
1929
1903
1878
1846
1814
1775
1736
1693
1651
1614
1577
1550
1523
1504
1486
1465
1445
1412
1380
1332
1285
1235
1185
1159
1133
1159
1185
1278
1371
1523
1675
1855
2035
2201
2368
2484
2601
2653
2705
2701
2698
2664
2631
2595
2560
2542
2525
2530
2535
2556
2578
2604
2630
2650
2671
2680
2690
2687
2684
2669
2654
2630
2606
2575
2545
2513
2482
2454
2427
2407
2387
2374
2362
2353
2345
2336
2327
2314
2302
2284
2267
2246
2226
2203
2181
2157
2133
2105
2077
2045
2014
1980
1947
1914
1882
1853
1824
1798
1773
1747
1721
1690
1660
1624
1588
1552
1516
1485
1454
1433
1412
1395
1379
1357
1336
1298
1261
1208
1156
1105
1054
1039
1024
1061
1098
1211
1325
1498
1671
1867
2064
2238
2413
2529
2645
2689
2733
2718
2703
2657
2612
2568
2525
2501
2478
2479
2480
2495
2511
2528
2546
2555
2564
2563
2563
2553
2543
2528
2513
2493
2473
2448
2423
2394
2366
2338
2310
2287
2264
2249
2234
2226
2218
2211
2205
2193
2182
2162
2143
2115
2088
2059
2030
2004
1978
1956
1935
1914
1893
1868
1844
1813
1782
1748
1715
1683
1652
1629
1606
1588
1570
1550
1531
1498
1466
1418
1371
1318
1266
1233
1200
1212
1224
1298
1373
1506
1640
1807
1974
2136
2298
2418
2539
2598
2658
2659
2660
2623
2586
2540
2494
2460
2427
2417
2407
2414
2422
2437
2452
2460
2469
2465
2462
2445
2428
2402
2377
2348
2319
2291
2264
2238
2213
2189
2166
2143
2121
2101
2082
2066
2050
2039
2028
2020
2012
2003
1995
1980
1966
1942
1919
1886
1854
1818
1783
1752
1721
1698
1675
1657
1639
1619
1599
1567
1536
1494
1452
1410
1368
1348
1329
1355
1382
1465
1549
1682
1815
1971
2127
2269
2411
2509
2608
2649
2691
2683
2675
2638
2601
2561
2521
2493
2465
2455
2445
2446
2448
2451
2455
2451
2448
2436
2424
2402
2381
2354
2328
2300
2273
2247
2222
2200
2178
2160
2142
2126
2110
2093
2077
2058
2040
2019
1999
1977
1956
1935
1915
1893
1872
1847
1823
1791
1760
1721
1683
1641
1599
1560
1521
1489
1458
1433
1409
1383
1358
1321
1285
1234
1184
1132
1081
1053
1026
1050
1075
1168
1261
1418
1575
1766
1957
2140
2323
2458
2593
2661
2729
2734
2740
2707
2674
2631
2589
2560
2531
2523
2515
2524
2533
2549
2565
2579
2593
2599
2605
2601
2598
2585
2572
2551
2530
2501
2473
2441
2409
2378
2347
2321
2295
2276
2257
2243
2229
2215
2202
2188
2174
2157
2140
2122
2105
2085
2066
2044
2022
1995
1968
1935
1903
1867
1832
1800
1768
1744
1720
1702
1685
1665
1646
1613
1581
1531
1482
1424
1366
1322
1279
1278
1278
1340
1403
1528
1654
1818
1983
2148
2314
2441
2568
2636
2704
2713
2723
2694
2666
2625
2585
2555
2525
2514
2503
2508
2514
2527
2541
2554
2567
2572
2577
2573
2570
2555
2541
2517
2493
2462
2431
2397
2364
2334
2305
2285
2265
2254
2243
2237
2232
2223
2214
2196
2179
2150
2121
2085
2049
2010
1971
1933
1895
1857
1819
1780
1741
1699
1658
1618
1579
1545
1512
1488
1464
1446
1428
1409
1390
1362
1335
1301
1268
1242
1216
1221
1226
1282
1338
1451
1565
1721
1877
2041
2206
2340
2475
2551
2627
2638
2649
2612
2576
2519
2463
2415
2368
2344
2320
2318
2317
2324
2332
2336
2341
2333
2325
2307
2290
2267
2245
2224
2204
2187
2171
2155
2140
2122
2104
2084
2064
2043
2023
2006
1990
1978
1967
1957
1947
1932
1917
1893
1869
1836
1804
1771
1739
1713
1688
1673
1659
1650
1641
1625
1610
1578
1546
1498
1451
1405
1359
1341
1324
1359
1394
1490
1587
1730
1873
2029
2186
2316
2447
2524
2602
2620
2639
2615
2592
2553
2514
2483
2452
2439
2427
2429
2432
2436
2440
2436
2432
2416
2400
2377
2355
2331
2307
2287
2268
2249
2231
2209
2188
2159
2131
2097
2064
2031
1999
1975
1951
1937
1923
1915
1908
1897
1886
1865
1845
1813
1782
1746
1711
1680
1649
1628
1607
1591
1576
1556
1536
1500
1465
1414
1364
1313
1262
1237
1212
1237
1262
1349
1437
1577
1717
1880
2043
2191
2339
2442
2546
2592
2639
2636
2634
2604
2574
2541
2509
2489
2469
2468
2467
2478
2490
2505
2520
2528
2536
2532
2528
2510
2492
2463
2435
2399
2364
2327
2290
2255
2220
2189
2158
2131
2104
2081
2058
2037
2017
1999
1981
1964
1948
1932
1916
1899
1882
1862
1842
1818
1794
1768
1743
1719
1696
1676
1657
1639
1621
1599
1577
1543
1509
1463
1418
1370
1323
1296
1270
1288
1306
1384
1462
1594
1727
1891
2055
2212
2369
2484
2600
2654
2709
2707
2705
2667
2630
2587
2544
2517
2490
2488
2487
2505
2523
2547
2572
2589
2607
2611
2615
2604
2594
2575
2557
2535
2513
2492
2471
2451
2431
2412
2394
2375
2357
2340
2323
2308
2294
2282
2271
2260
2249
2235
2221
2200
2179
2151
2124
2092
2061
2032
2004
1981
1959
1941
1923
1903
1884
1855
1827
1787
1747
1700
1654
1609
1564
1529
1495
1469
1443
1416
1389
1346
1304
1243
1182
1115
1048
1036
1024
1027
1031
1139
1247
1429
1612
1832
2053
2259
2465
2610
2755
2817
2880
2869
2859
2807
2756
2701
2646
2614
2582
2580
2578
2596
2615
2638
2662
2678
2694
2697
2700
2690
2680
2660
2640
2611
2583
2548
2513
2471
2429
2385
2342
2301
2260
2227
2194
2169
2145
2128
2112
2100
2089
2078
2068
2055
2042
2024
2006
1981
1957
1927
1897
1864
1832
1803
1775
1753
1731
1717
1703
1690
1677
1657
1637
1606
1575
1542
1509
1492
1476
1502
1528
1613
1698
1841
1985
2163
2341
2517
2694
2832
2971
3021
3071
3071
3071
3071
3071
3071
3071
3071
3071
3071
3071
3071
3071
3071
3071
3071
3071
3071
3071
3071
3071
3071
3071
3071
3071
3071
3071
3071
3071
3071
3071
3071
3071
3071
3071
3071
3071
3071
3071
3047
3023
2928
2834
2711
2588
2457
2326
2205
2084
1983
1883
1799
1715
1638
1561
1482
1404
1324
1245
1173
1101
1062
1024
1024
1024
1024
1024
1024
1024
1024
1024
1024
1024
1024
1024
1024
1024
1097
1171
1280
1389
1510
1631
1739
1847
1921
1996
2030
2065
2066
2067
2050
2033
2014
1996
1986
1976
1977
1978
1986
1994
2003
2013
2018
2024
2024
2025
2020
2015
2005
1995
1981
1968
1951
1935
1917
1900
1885
1871
1863
1855
1856
1858
1870
1882
1902
1922
1945
1968
1988
2008
2020
2032
2034
2036
2028
2020
2005
1991
1974
1957
1939
1921
1902
1884
1863
1843
1820
1798
1774
1750
1727
1705
1687
1670
1659
1649
1642
1636
1629
1623
1612
1601
1586
1571
1560
1549
1553
1558
1588
1619
1678
1737
1817
1898
1983
2069
2140
2212
2256
2301
2315
2329
2319
2310
2290
2270
2253
2236
2228
2220
2222
2225
2232
2239
2246
2253
2255
2257
2254
2251
2243
2236
2226
2216
2204
2192
2178
2165
2150
2135
2120
2105
2092
2080
2071
2063
2058
2053
2050
2048
2043
2039
2031
2023
2012
2001
1988
1975
1963
1952
1944
1936
1931
1926
1921
1916
1907
1899
1887
1876
1862
1849
1838
1827
1820
1813
1810
1808
1804
1800
1789
1779
1760
1741
1718
1696
1681
1667
1674
1682
1719
1757
1824
1891
1974
2057
2137
2218
2278
2338
2368
2398
2400
2403
2393
2383
2388
2393
2406
2420
2422
2425
2432
2440
2448
2457
2462
2468
2466
2465
2458
2451
2438
2426
2408
2390
2366
2343
2315
2287
2259
2231
2207
2183
2165
2148
2137
2126
2115
2105
2092
2079
2059
2040
2017
1994
1971
1949
1929
1910
1893
1876
1857
1839
1815
1792
1764
1736
1707
1679
1656
1634
1620
1607
1597
1587
1573
1559
1533
1507
1471
1435
1404
1373
1369
1365
1409
1454
1552
1651
1790
1930
2081
2232
2360
2489
2569
2650
2676
2702
2684
2666
2627
2589
2551
2514
2497
2480
2480
2481
2487
2494
2497
2500
2495
2490
2475
2460
2440
2420
2398
2377
2356
2336
2315
2294
2272
2250
2225
2200
2176
2152
2130
2108
2089
2071
2054
2038
2018
1999
1974
1949
1917
1886
1851
1816
1783
1751
1723
1695
1671
1647
1621
1596
1564
1533
1493
1454
1412
1371
1335
1299
1274
1250
1233
1216
1197
1178
1145
1113
1068
1024
1024
1024
1024
1024
1024
1024
1119
1214
1373
1533
1719
1906
2080
2254
2381
2508
2572
2636
2644
2653
2628
2604
2574
2545
2528
2511
2513
2516
2531
2547
2565
2584
2596
2609
2612
2616
2610
2604
2591
2578
2558
2539
2515
2491
2463
2435
2406
2378
2351
2325
2303
2282
2266
2250
2238
2227
2216
2205
2193
2181
2164
2147
2125
2103
2077
2051
2023
1995
1968
1942
1918
1895
1874
1854
1833
1813
1789
1765
1736
1707
1675
1643
1613
1583
1560
1537
1523
1509
1498
1487
1469
1452
1421
1391
1350
1310
1274
1239
1233
1228
1274
1320
1426
1533
1686
1839
2008
2178
2327
2477
2578
2679
2722
2766
2762
2758
2727
2697
2664
2631
2609
2588
2582
2576
2579
2583
2589
2596
2598
2600
2595
2590
2577
2565
2547
2529
2506
2483
2458
2434
2409
2384
2361
2339
2319
2299
2282
2265
2248
2232
2216
2200
2184
2168
2153
2138
2123
2108
2092
2076
2056
2037
2013
1990
1963
1936
1909
1882
1857
1832
1810
1788
1766
1744
1719
1695
1667
1640
1612
1584
1559
1535
1517
1500
1486
1473
1455
1438
1409
1380
1340
1300
1263
1226
1216
1206
1245
1284
1384
1485
1635
1785
1955
2125
2280
2435
2544
2654
2702
2750
2746
2743
2710
2678
2643
2609
2587
2565
2557
2549
2546
2544
2540
2536
2524
2513
2498
2483
2466
2450
2434
2419
2402
2386
2366
2346
2320
2295
2268
2241
2216
2191
2173
2155
2141
2128
2115
2103
2085
2068
2045
2022
1996
1970
1945
1920
1898
1877
1857
1837
1813
1789
1759
1729
1693
1657
1622
1588
1562
1537
1521
1505
1493
1481
1462
1443
1410
1377
1335
1294
1263
1232
1240
1248
1314
1380
1508
1636
1805
1975
2150
2326
2468
2610
2695
2780
2803
2827
2806
2785
2744
2703
2666
2630
2609
2588
2582
2577
2577
2577
2575
2573
2562
2551
2533
2516
2494
2473
2451
2429
2407
2386
2364
2343
2319
2296
2272
2248
2224
2201
2182
2164
2148
2133
2120
2107
2091
2076
2055
2035
2008
1981
1952
1923
1895
1867
1843
1820
1799
1779
1757
1736
1708
1681
1646
1612
1574
1537
1506
1475
1453
1432
1419
1406
1392
1378
1351
1324
1279
1234
1183
1132
1098
1065
1080
1095
1178
1261
1411
1561
1751
1941
2130
2319
2465
2611
2691
2772
2787
2803
2774
2746
2702
2659
2623
2588
2569
2551
2547
2543
2544
2545
2544
2543
2535
2528
2516
2504
2488
2472
2452
2432
2407
2382
2353
2324
2292
2261
2233
2205
2182
2160
2143
2127
2111
2096
2077
2058
2034
2010
1982
1955
1928
1901
1878
1855
1834
1813
1791
1770
1742
1715
1683
1652
1620
1589
1563
1538
1520
1503
1489
1476
1455
1435
1402
1370
1329
1288
1256
1225
1227
1230
1288
1347
1465
1584
1746
1909
2080
2251
2394
2538
2626
2715
2743
2772
2755
2738
2699
2661
2625
2589
2568
2548
2541
2535
2535
2536
2533
2530
2519
2508
2490
2473
2452
2432
2413
2394
2377
2360
2342
2325
2305
2285
2261
2238
2214
2190
2169
2149
2133
2118
2105
2093
2080
2067
2047
2028
2000
1973
1939
1905
1871
1838
1809
1781
1758
1736
1716
1696
1672
1649
1617
1586
1549
1513
1478
1444
1418
1393
1378
1364
1353
1342
1321
1300
1261
1222
1168
1115
1070
1025
1024
1024
1073
1123
1249
1376
1555
1734
1927
2121
2287
2453
2560
2668
2710
2753
2744
2735
2700
2666
2630
2594
2571
2549
2541
2534
2536
2538
2543
2549
2554
2559
2560
2561
2556
2552
2538
2525
2500
2476
2441
2406
2368
2330
2295
2260
2235
2211
2195
2180
2169
2159
2146
2133
2114
2095
2071
2048
2024
2000
1979
1958
1940
1922
1900
1879
1850
1822
1785
1749
1710
1671
1637
1603
1580
1557
1539
1522
1502
1482
1448
1415
1370
1326
1285
1244
1232
1221
1261
1302
1404
1507
1654
1802
1963
2125
2261
2397
2481
2566
2592
2618
2600
2583
2547
2512
2482
2452
2438
2424
2424
2425
2429
2434
2434
2434
2424
2415
2399
2383
2364
2345
2326
2308
2289
2270
2251
2232
2211
2191
2171
2151
2133
2115
2101
2087
2074
2061
2045
2030
2009
1989
1964
1939
1912
1885
1859
1834
1811
1788
1764
1740
1711
1682
1647
1613
1575
1537
1504
1471
1446
1422
1405
1389
1371
1353
1323
1293
1247
1201
1149
1098
1065
1033
1047
1061
1139
1217
1356
1496
1671
1847
2020
2193
2326
2460
2534
2609
2626
2643
2623
2603
2572
2542
2523
2504
2504
2505
2523
2541
2565
2589
2611
2633
2646
2659
2663
2667
2660
2654
2639
2624
2599
2575
2543
2511
2475
2440
2408
2376
2351
2327
2313
2299
2291
2283
2275
2268
2253
2239
2216
2193
2164
2136
2107
2079
2053
2028
2006
1984
1959
1935
1904
1874
1836
1798
1757
1716
1679
1643
1616
1589
1569
1549
1527
1506
1472
1439
1391
1343
1291
1240
1206
1173
1183
1193
1262
1332
1455
1579
1733
1887
2034
2182
2291
2401
2454
2508
2510
2512
2482
2453
2416
2380
2355
2331
2327
2324
2336
2348
2367
2386
2401
2416
2420
2425
2417
2410
2391
2373
2346
2320
2291
2263
2235
2208
2186
2165
2149
2133
2121
2109
2098
2087
2074
2062
2046
2030
2013
1996
1977
1959
1940
1921
1899
1877
1849
1822
1790
1759
1727
1695
1667
1639
1617
1595
1575
1556
1531
1506
1469
1432
1385
1339
1296
1253
1237
1222
1255
1288
1379
1471
1609
1747
1902
2058
2195
2332
2423
2514
2550
2586
2578
2571
2544
2517
2495
2474
2470
2467
2483
2500
2527
2554
2583
2612
2631
2650
2657
2665
2661
2657
2644
2631
2610
2589
2561
2533
2500
2468
2438
2408
2386
2364
2353
2342
2340
2338
2336
2335
2326
2317
2296
2275
2244
2213
2180
2147
2119
2092
2071
2051
2033
2015
1991
1967
1932
1897
1854
1811
1768
1726
1693
1660
1637
1615
1595
1576
1545
1514
1465
1417
1356
1295
1245
1196
1187
1179
1234
1290
1409
1529
1689
1849
2008
2168
2287
2406
2462
2518
2513
2509
2466
2424
2375
2326
2294
2263
2258
2254
2269
2285
2306
2327
2341
2355
2357
2359
2350
2341
2328
2316
2304
2292
2282
2273
2261
2250
2234
2219
2197
2175
2149
2124
2099
2074
2054
2035
2021
2008
1997
1986
1970
1954
1928
1902
1863
1825
1778
1732
1685
1639
1598
1557
1521
1485
1449
1414
1370
1326
1270
1215
1155
1096
1060
1024
1024
1024
1075
1127
1239
1351
1500
1649
1801
1954
2080
2206
2284
2363
2394
2425
2422
2420
2407
2395
2391
2388
2402
2417
2445
2474
2507
2540
2564
2588
2594
2601
2587
2573
2542
2511
2469
2427
2383
2340
2300
2260
2229
2198
2174
2150
2131
2113
2096
2080
2063
2047
2030
2014
1999
1984
1968
1952
1934
1917
1894
1871
1841
1812
1777
1743
1711
1679
1654
1629
1611
1594
1577
1561
1537
1513
1475
1437
1391
1345
1308
1272
1270
1269
1322
1375
1485
1596
1745
1895
2050
2206
2330
2455
2528
2601
2620
2639
2623
2608
2582
2557
2544
2532
2540
2548
2573
2598
2628
2658
2682
2707
2720
2733
2735
2737
2729
2721
2704
2688
2663
2638
2605
2572
2535
2499
2465
2432
2407
2382
2368
2355
2349
2343
2338
2334
2324
2315
2299
2283
2260
2238
2214
2191
2167
2144
2118
2093
2063
2033
1996
1960
1921
1882
1846
1811
1784
1758
1739
1721
1700
1680
1647
1615
1565
1516
1459
1402
1359
1317
1317
1318
1379
1441
1563
1685
1843
2002
2159
2316
2435
2554
2617
2680
2688
2696
2671
2646
2614
2583
2566
2550
2555
2561
2582
2603
2628
2654
2671
2689
2696
2704
2700
2696
2682
2669
2651
2634
2614
2594
2574
2555
2535
2515
2496
2478
2462
2446
2434
2423
2413
2404
2396
2388
2376
2365
2347
2329
2303
2278
2246
2214
2179
2144
2110
2077
2046
2016
1987
1958
1927
1897
1862
1827
1788
1749
1712
1675
1644
1613
1592
1571
1553
1536
1513
1491
1453
1415
1363
1311
1260
1209
1186
1163
1195
1228
1330
1433
1595
1757
1946
2135
2306
2478
2595
2712
2760
2808
2797
2786
2743
2701
2659
2617
2594
2571
2571
2571
2584
2597
2609
2622
2623
2625
2615
2606
2586
2567
2544
2522
2497
2473
2448
2423
2398
2373
2350
2327
2308
2289
2274
2260
2248
2237
2224
2212
2194
2177
2155
2133
2109
2085
2063
2041
2022
2004
1986
1969
1947
1925
1897
1870
1837
1805
1775
1746
1723
1701
1686
1672
1658
1645
1624
1603
1569
1536
1499
1462
1442
1422
1443
1465
1543
1622
1754
1887
2048
2209
2362
2515
2623
2732
2778
2825
2812
2800
2751
2702
2644
2587
2543
2499
2476
2453
2445
2437
2431
2425
2412
2400
2376
2353
2324
2296
2268
2240
2219
2198
2183
2168
2156
2145
2132
2119
2103
2087
2069
2051
2033
2015
1996
1978
1957
1936
1907
1878
1838
1799
1750
1701
1651
1602
1560
1519
1493
1468
1456
1444
1436
1428
1411
1395
1363
1332
1291
1251
1220
1189
1191
1194
1248
1303
1411
1520
1664
1809
1957
2106
2226
2346
2415
2485
2502
2519
2496
2474
2436
2398
2364
2331
2315
2299
2301
2303
2315
2327
2338
2350
2353
2356
2347
2338
2319
2300
2274
2249
2222
2196
2170
2145
2122
2100
2079
2059
2041
2023
2006
1990
1976
1962
1950
1938
1927
1916
1900
1885
1862
1840
1809
1779
1745
1711
1678
1646
1621
1596
1577
1558
1539
1521
1493
1466
1426
1386
1340
1295
1264
1234
1242
1251
1317
1383
1505
1628
1786
1945
2104
2263
2388
2513
2581
2650
2662
2675
2648
2621
2580
2539
2504
2470
2452
2435
2434
2434
2443
2453
2464
2475
2480
2486
2482
2478
2463
2448
2422
2397
2363
2330
2294
2259
2227
2195
2170
2145
2128
2111
2098
2085
2071
2058
2041
2024
2005
1987
1968
1949
1931
1914
1896
1878
1856
1834
1805
1777
1744
1712
1680
1649
1625
1601
1583
1566
1549
1532
1506
1480
1441
1402
1358
1314
1287
1261
1277
1294
1372
1450
1585
1720
1888
2056
2216
2377
2494
2611
2665
2719
2715
2711
2671
2631
2583
2536
2502
2469
2457
2446
2451
2456
2467
2479
2487
2495
2495
2495
2486
2477
2459
2442
2417
2393
2363
2334
2302
2270
2240
2211
2188
2166
2152
2138
2128
2118
2107
2096
2079
2062
2038
2015
1988
1962
1939
1917
1900
1883
1869
1855
1837
1820
1794
1768
1734
1700
1666
1632
1606
1580
1567
1554
1545
1537
1521
1506
1472
1438
1388
1338
1290
1243
1230
1217
1263
1309
1425
1541
1706
1872
2051
2230
2378
2527
2615
2704
2726
2748
2722
2696
2649
2602
2560
2519
2495
2471
2464
2458
2459
2461
2462
2464
2460
2457
2449
2441
2427
2414
2396
2379
2354
2329
2299
2269
2237
2205
2179
2153
2135
2117
2107
2097
2089
2081
2068
2055
2034
2013
1988
1964
1944
1925
1914
1904
1901
1898
1894
1890
1874
1858
1826
1795
1753
1712
1673
1634
1606
1578
1562
1546
1531
1517
1492
1467
1427
1387
1346
1306
1290
1274
1310
1346
1445
1544
1693
1843
2007
2172
2311
2450
2532
2615
2634
2653
2623
2594
2543
2492
2443
2394
2360
2327
2306
2286
2270
2255
2237
2220
2199
2178
2155
2133
2114
2096
2082
2068
2058
2049
2042
2035
2031
2027
2025
2024
2027
2030
2034
2039
2040
2042
2036
2030
2015
2000
1977
1954
1929
1905
1884
1863
1847
1831
1817
1804
1786
1768
1738
1708
1662
1617
1559
1502
1442
1382
1334
1287
1270
1254
1282
1310
1390
1471
1597
1723
1877
2032
2186
2341
2467
2593
2670
2747
2769
2791
2768
2745
2697
2649
2599
2549
2511
2474
2455
2436
2429
2422
2416
2410
2396
2382
2354
2327
2289
2251
2208
2166
2127
2089
2060
2031
2012
1994
1982
1971
1961
1952
1939
1926
1909
1893
1874
1855
1840
1825
1817
1810
1810
1811
1814
1818
1820
1822
1815
1809
1792
1775
1748
1722
1687
1652
1608
1564
1512
1461
1402
1344
1288
1233
1196
1159
1161
1164
1222
1280
1396
1512
1671
1831
2003
2176
2325
2475
2574
2674
2712
2750
2738
2726
2684
2643
2599
2555
2525
2495
2483
2472
2471
2471
2473
2475
2470
2466
2454
2443
2427
2412
2396
2380
2363
2347
2329
2311
2288
2265
2238
2211
2185
2160
2144
2128
2128
2128
2140
2153
2168
2184
2186
2188
2164
2141
2089
2038
1968
1899
1831
1764
1717
1670
1654
1638
1647
1657
1678
1699
1710
1721
1712
1704
1676
1648
1616
1585
1573
1561
1588
1616
1691
1767
1883
1999
2132
2266
2389
2513
2600
2687
2727
2767
2761
2755
2718
2682
2636
2590
2551
2512
2488
2464
2453
2442
2435
2429
2419
2410
2394
2378
2357
2337
2317
2297
2282
2268
2258
2249
2243
2238
2231
2225
2218
2211
2202
2194
2185
2177
2168
2159
2147
2136
2118
2101
2079
2058
2035
2013
1995
1977
1964
1951
1938
1925
1903
1882
1844
1806
1753
1700
1647
1594
1563
1533
1547
1562
1630
1699
1812
1925
2056
2187
2304
2421
2497
2573
2598
2623
2604
2586
2543
2501
2455
2409
2375
2342
2325
2308
2303
2299
2297
2295
2289
2284
2270
2257
2237
2217
2194
2171
2151
2131
2113
2096
2081
2067
2051
2035
2015
1995
1970
1945
1918
1891
1864
1838
1814
1791
1770
1749
1727
1705
1680
1655
1627
1600
1572
1545
1523
1502
1486
1471
1458
1446
1426
1406
1374
1343
1302
1261
1229
1197
1196
1195
1247
1300
1411
1523
1680
1837
2008
2180
2331
2483
2586
2690
2736
2783
2779
2776
2741
2707
2663
2619
2584
2549
2530
2511
2508
2506
2512
2519
2526
2533
2529
2526
2508
2491
2459
2428
2390
2353
2319
2285
2261
2237
2223
2209
2199
2190
2175
2160
2134
2109
2073
2037
1997
1958
1923
1889
1862
1836
1815
1795
1774
1754
