0
2225
2214
2203
2193
2179
2165
2144
2124
2098
2073
2047
2021
1997
1974
1952
1930
1907
1885
1857
1829
1795
1762
1726
1690
1659
1629
1606
1583
1566
1549
1529
1509
1479
1449
1409
1369
1331
1293
1278
1264
1293
1322
1404
1486
1612
1739
1884
2030
2163
2297
2392
2488
2537
2586
2593
2601
2586
2571
2549
2528
2511
2494
2482
2470
2459
2448
2432
2416
2395
2374
2348
2323
2297
2271
2246
2221
2197
2174
2152
2131
2111
2092
2076
2061
2050
2039
2031
2024
2016
2009
1996
1983
1964
1945
1920
1896
1872
1849
1828
1807
1788
1769
1747
1725
1695
1665
1627
1589
1554
1519
1504
1489
1511
1534
1602
1671
1778
1886
2011
2136
2252
2368
2451
2534
2575
2617
2622
2627
2611
2596
2575
2554
2537
2521
2508
2495
2480
2466
2443
2421
2391
2361
2326
2291
2258
2225
2198
2171
2150
2130
2112
2095
2078
2062
2043
2025
2008
1992
1977
1962
1950
1938
1923
1909
1888
1867
1836
1806
1771
1736
1702
1669
1642
1616
1595
1574
1552
1530
1497
1464
1419
1374
1327
1280
1254
1228
1247
1267
1349
1432
1572
1712
1887
2062
2234
2407
2545
2684
2768
2852
2883
2915
2910
2905
2885
2865
2847
2829
2818
2808
2803
2798
2790
2783
2768
2754
2732
2711
2684
2658
2632
2607
2583
2560
2541
2522
2503
2484
2467
2450
2432
2414
2397
2381
2366
2351
2338
2325
2312
2300
2284
2269
2247
2226
2198
2171
2139
2108
2075
2043
2013
1984
1957
1931
1905
1879
1852
1826
1794
1763
1729
1696
1662
1628
1600
1572
1548
1525
1505
1486
1462
1439
1408
1377
1340
1303
1266
1230
1201
1173
1156
1139
1126
1114
1095
1076
1050
1024
1024
1024
1024
1024
1024
1024
1045
1066
1201
1337
1522
1707
1910
2114
2293
2473
2601
2729
2794
2859
2873
2887
2871
2856
2834
2812
2795
2779
2771
2764
2758
2753
2744
2736
2721
2706
2686
2667
2645
2624
2604
2584
2564
2545
2527
2510
2491
2473
2455
2438
2422
2407
2394
2381
2369
2357
2345
2334
2321
2308
2291
2275
2255
2235
2212
2190
2165
2140
2114
2089
2063
2038
2015
1993
1970
1948
1927
1906
1883
1860
1836
1813
1787
1762
1738
1715
1694
1674
1656
1639
1621
1604
1584
1564
1539
1514
1487
1461
1437
1413
1396
1379
1368
1357
1345
1333
1312
1291
1258
1225
1188
1151
1131
1112
1132
1153
1231
1309
1444
1579
1750
1921
2094
2267
2409
2552
2642
2733
2771
2809
2809
2809
2792
2775
2757
2740
2729
2719
2712
2706
2698
2691
2677
2663
2643
2624
2601
2579
2557
2536
2515
2494
2475
2456
2435
2415
2394
2374
2355
2337
2322
2308
2298
2288
2279
2270
2259
2249
2233
2218
2197
2176
2153
2130
2107
2084
2063
2042
2021
2000
1977
1954
1927
1900
1872
1844
1817
1790
1768
1747
1730
1713
1697
1682
1663
1645
1621
1597
1569
1542
1516
1491
1471
1451
1437
1423
1408
1393
1370
1348
1313
1279
1242
1206
1184
1163
1179
1196
1265
1334
1455
1577
1731
1885
2041
2198
2325
2453
2533
2613
2643
2674
2668
2663
2641
2619
2597
2575
2559
2544
2534
2524
2511
2499
2480
2462
2435
2408
2378
2349
2319
2290
2266
2243
2224
2205
2189
2173
2157
2141
2124
2108
2091
2075
2061
2047
2035
2024
2012
2001
1986
1971
1949
1928
1899
1871
1840
1810
1781
1752
1730
1708
1690
1673
1654
1636
1609
1583
1547
1511
1473
1436
1413
1391
1403
1415
1475
1535
1642
1750
1887
2024
2164
2305
2420
2536
2610
2684
2715
2746
2745
2744
2730
2716
2700
2684
2673
2663
2655
2647
2636
2626
2609
2593
2570
2547
2521
2496
2471
2447
2424
2402
2382
2362
2343
2324
2306
2289
2274
2259
2247
2235
2224
2214
2203
2193
2178
2164
2145
2126
2102
2078
2053
2029
2004
1980
1957
1934
1910
1886
1859
1833
1803
1773
1742
1712
1685
1658
1636
1615
1596
1578
1559
1540
1514
1489
1459
1429
1398
1367
1343
1319
1303
1288
1278
1269
1253
1238
1210
1183
1142
1101
1065
1030
1027
1024
1067
1111
1222
1333
1497
1662
1850
2038
2212
2387
2518
2650
2725
2801
2827
2854
2850
2847
2832
2818
2806
2795
2788
2782
2778
2774
2766
2758
2745
2732
2713
2695
2675
2655
2634
2613
2593
2573
2552
2532
2511
2491
2471
2451
2434
2417
2403
2389
2377
2366
2354
2342
2329
2317
2300
2284
2264
2245
2222
2199
2174
2149
2123
2097
2071
2046
2021
1997
1973
1950
1926
1903
1878
1854
1827
1801
1773
1746
1720
1695
1673
1651
1632
1613
1595
1577
1555
1533
1506
1480
1450
1421
1395
1369
1349
1329
1316
1303
1290
1277
1255
1233
1198
1163
1123
1083
1059
1036
1052
1069
1144
1220
1354
1489
1663
1837
2017
2197
2347
2498
2598
2699
2746
2793
2801
2810
2798
2786
2773
2760
2750
2741
2734
2728
2719
2711
2697
2683
2663
2644
2621
2599
2576
2554
2532
2510
2487
2465
2443
2421
2399
2377
2358
2339
2323
2308
2296
2285
2273
2262
2249
2236
2218
2201
2182
2163
2141
2120
2098
2077
2055
2033
2008
1984
1957
1931
1903
1876
1850
1824
1801
1779
1758
1737
1716
1695
1670
1645
1617
1590
1563
1537
1516
1496
1481
1466
1454
1442
1424
1407
1379
1351
1316
1281
1255
1229
1233
1237
1290
1344
1451
1558
1705
1853
2012
2172
2312
2453
2551
2649
2699
2750
2761
2773
2763
2754
2739
2724
2711
2699
2688
2677
2663
2650
2630
2610
2584
2559
2530
2502
2475
2448
2424
2401
2381
2361
2343
2325
2308
2292
2277
2263
2251
2239
2227
2216
2205
2194
2180
2166
2149
2132
2112
2092
2071
2050
2027
2005
1982
1959
1933
1907
1879
1851
1821
1792
1764
1737
1713
1689
1667
1646
1624
1602
1576
1551
1521
1491
1461
1432
1407
1383
1366
1350
1337
1325
1309
1294
1266
1238
1201
1164
1129
1094
1085
1076
1115
1155
1253
1352
1501
1651
1826
2001
2167
2334
2464
2594
2673
2752
2785
2819
2822
2825
2816
2807
2797
2788
2783
2778
2773
2769
2762
2755
2742
2730
2713
2697
2677
2658
2638
2619
2598
2578
2557
2537
2516
2496
2476
2456
2438
2420
2405
2390
2377
2364
2352
2340
2326
2312
2296
2280
2260
2241
2218
2196
2170
2145
2119
2094
2068
2042
2018
1994
1971
1948
1924
1901
1875
1850
1823
1796
1767
1739
1712
1685
1662
1639
1619
1600
1580
1560
1537
1515
1486
1458
1427
1397
1368
1340
1320
1300
1285
1271
1258
1245
1222
1199
1163
1128
1086
1045
1034
1024
1026
1029
1102
1175
1307
1440
1613
1786
1967
2149
2305
2462
2570
2679
2736
2794
2810
2827
2823
2819
2809
2800
2794
2788
2784
2781
2776
2772
2763
2754
2739
2725
2707
2689
2670
2651
2631
2611
2591
2571
2550
2530
2509
2489
2469
2450
2433
2417
2403
2389
2377
2365
2352
2340
2326
2313
2296
2280
2262
2244
2222
2201
2178
2156
2131
2107
2082
2058
2033
2009
1985
1962
1938
1915
1891
1867
1841
1815
1789
1763
1737
1711
1688
1666
1646
1626
1607
1588
1566
1545
1519
1494
1466
1439
1414
1389
1369
1350
1336
1323
1309
1295
1272
1250
1216
1183
1145
1107
1083
1059
1072
1086
1154
1223
1348
1474
1638
1803
1977
2151
2300
2450
2554
2658
2712
2766
2781
2796
2790
2785
2776
2767
2761
2755
2752
2749
2743
2737
2725
2713
2694
2676
2654
2632
2610
2589
2568
2548
2528
2508
2486
2465
2442
2419
2397
2375
2356
2338
2324
2311
2300
2290
2280
2270
2255
2241
2221
2202
2178
2155
2131
2107
2084
2062
2041
2020
1998
1977
1953
1929
1902
1875
1847
1819
1793
1768
1746
1725
1705
1686
1666
1646
1621
1596
1568
1540
1511
1483
1460
1438
1421
1405
1391
1378
1360
1342
1312
1282
1243
1204
1169
1135
1126
1118
1156
1194
1287
1380
1519
1658
1818
1978
2127
2277
2389
2502
2569
2636
2660
2684
2683
2682
2669
2657
2645
2633
2622
2612
2600
2588
2570
2553
2529
2506
2478
2450
2420
2391
2362
2334
2307
2280
2254
2229
2207
2185
2165
2146
2131
2116
2102
2089
2075
2061
2044
2027
2007
1988
1966
1944
1922
1900
1878
1857
1835
1813
1787
1762
1733
1704
1673
1642
1613
1585
1561
1538
1518
1498
1474
1451
1420
1389
1349
1309
1273
1237
1222
1207
1234
1262
1341
1420
1547
1674
1826
1979
2128
2278
2398
2518
2596
2675
2712
2750
2759
2768
2764
2760
2755
2751
2749
2748
2748
2748
2744
2741
2732
2724
2709
2694
2676
2659
2639
2620
2601
2582
2562
2542
2522
2502
2481
2461
2442
2423
2406
2389
2374
2360
2347
2334
2320
2306
2289
2273
2252
2232
2208
2184
2159
2134
2108
2083
2060
2038
2017
1996
1975
1954
1930
1906
1879
1852
1822
1793
1764
1735
1708
1682
1659
1636
1614
1592
1567
1542
1512
1482
1449
1417
1386
1355
1331
1308
1292
1276
1262
1248
1225
1203
1168
1134
1090
1047
1035
1024
1024
1024
1068
1113
1229
1345
1506
1667
1842
2017
2174
2331
2445
2560
2625
2690
2714
2738
2738
2739
2732
2726
2722
2718
2715
2713
2709
2706
2696
2687
2672
2658
2639
2621
2603
2585
2566
2548
2529
2511
2489
2468
2444
2421
2398
2375
2355
2335
2319
2304
2291
2278
2264
2251
2234
2217
2194
2172
2147
2123
2097
2071
2047
2023
1999
1976
1951
1927
1900
1873
1843
1814
1785
1756
1730
1705
1682
1660
1639
1618
1593
1569
1539
1509
1475
1441
1406
1372
1342
1312
1287
1263
1238
1214
1183
1153
1111
1069
1046
1024
1024
1024
1024
1024
1025
1026
1113
1201
1322
1443
1576
1709
1829
1949
2037
2125
2175
2225
2242
2260
2257
2255
2245
2236
2226
2217
2208
2199
2186
2174
2156
2138
2111
2085
2055
2025
1994
1963
1935
1908
1883
1859
1836
1814
1790
1766
1739
1713
1682
1652
1619
1586
1553
1520
1487
1455
1422
1389
1354
1319
1279
1240
1196
1152
1105
1059
1041
1024
1024
1024
1024
1024
1024
1024
1024
1024
1024
1024
1024
1024
1049
1075
1147
1219
1318
1417
1535
1654
1779
1905
2021
2138
2232
2327
2394
2462
2503
2545
2569
2593
2607
2621
2633
2646
2658
2670
2682
2695
2705
2716
2723
2730
2733
2736
2736
2736
2734
2732
2728
2725
2719
2713
2704
2696
2685
2675
2663
2651
2639
2627
2616
2606
2594
2583
2571
2559
2543
2528
2509
2491
2468
2446
2422
2399
2376
2353
2330
2308
2286
2265
2242
2219
2193
2168
2141
2115
2088
2061
2036
2012
1991
1970
1951
1932
1913
1894
1873
1852
1829
1806
1784
1762
1742
1723
1708
1693
1678
1664
1644
1625
1597
1569
1535
1501
1471
1442
1432
1422
1445
1469
1532
1595
1690
1786
1896
2007
2112
2218
2301
2384
2437
2490
2516
2543
2552
2562
2565
2569
2572
2575
2579
2584
2588
2592
2593
2594
2590
2587
2580
2573
2564
2555
2544
2534
2523
2512
2500
2488
2475
2463
2450
2438
2426
2414
2404
2394
2384
2375
2366
2358
2347
2337
2325
2313
2297
2282
2265
2248
2230
2212
2194
2177
2159
2142
2125
2108
2091
2075
2056
2038
2018
1999
1978
1958
1938
1918
1899
1881
1864
1847
1831
1815
1797
1779
1758
1737
1713
1689
1665
1641
1610
1579
1540
1502
1474
1446
1417
1388
1351
1314
1270
1227
1189
1152
1140
1128
1157
1187
1267
1348
1471
1594
1740
1886
2026
2166
2279
2392
2465
2539
2577
2616
2630
2645
2650
2655
2658
2661
2665
2670
2674
2678
2677
2676
2668
2661
2649
2637
2621
2606
2589
2573
2556
2540
2523
2507
2489
2471
2453
2435
2417
2399
2382
2366
2350
2335
2321
2307
2292
2278
2262
2246
2226
2207
2184
2161
2135
2110
2083
2057
2031
2006
1982
1958
1934
1911
1886
1861
1832
1803
1771
1739
1706
1674
1644
1615
1590
1565
1542
1520
1493
1467
1432
1398
1356
1315
1276
1238
1219
1200
1218
1237
1302
1368
1475
1583
1714
1845
1974
2103
2206
2309
2375
2442
2472
2503
2511
2519
2516
2514
2512
2510
2508
2507
2503
2500
2488
2477
2457
2438
2413
2389
2364
2340
2317
2295
2275
2256
2236
2217
2196
2176
2154
2132
2112
2092
2075
2059
2045
2032
2017
2003
1985
1967
1941
1916
1886
1857
1827
1798
1773
1748
1726
1705
1683
1661
1631
1602
1563
1525
1484
1444
1417
1390
1395
1400
1449
1498
1591
1685
1809
1933
2063
2193
2307
2421
2503
2585
2633
2681
2702
2724
2732
2740
2743
2747
2751
2756
2759
2763
2763
2763
2756
2750
2739
2729
2717
2706
2691
2677
2662
2647
2632
2618
2603
2589
2576
2563
2549
2535
2522
2510
2496
2483
2469
2456
2440
2425
2407
2390
2369
2349
2325
2302
2276
2250
2222
2194
2165
2136
2108
2080
2053
2026
2000
1974
1946
1919
1889
1860
1827
1794
1761
1728
1696
1665
1638
1611
1585
1560
1533
1507
1475
1444
1408
1373
1336
1299
1266
1234
1208
1183
1162
1141
1116
1091
1057
1024
1024
1024
1024
1024
1024
1024
1024
1024
1102
1180
1317
1454
1615
1777
1936
2095
2224
2353
2441
2530
2578
2626
2646
2666
2673
2680
2684
2688
2694
2700
2706
2713
2716
2719
2716
2714
2706
2699
2688
2678
2665
2652
2638
2625
2610
2595
2579
2564
2547
2531
2515
2500
2486
2472
2459
2447
2435
2423
2411
2399
2384
2370
2352
2335
2314
2294
2272
2250
2226
2203
2180
2158
2136
2114
2092
2071
2047
2024
1999
1975
1948
1921
1894
1867
1841
1816
1794
1772
1751
1730
1709
1689
1665
1641
1614
1587
1559
1531
1505
1480
1460
1440
1423
1407
1388
1370
1343
1316
1280
1245
1210
1175
1156
1137
1154
1171
1234
1298
1406
1514
1650
1786
1924
2063
2181
2299
2382
2465
2512
2559
2579
2600
2607
2615
2619
2623
2627
2631
2635
2639
2639
2639
2633
2628
2617
2606
2591
2577
2560
2543
2526
2509
2490
2472
2454
2436
2418
2400
2382
2365
2349
2333
2318
2303
2289
2275
2260
2246
2230
2215
2198
2181
2161
2141
2118
2096
2071
2046
2021
1996
1971
1946
1924
1902
1880
1858
1836
1814
1788
1763
1735
1707
1678
1650
1624
1599
1578
1557
1537
1518
1496
1474
1444
1415
1378
1342
1306
1271
1254
1238
1256
1275
1337
1399
1501
1603
1727
1851
1974
2098
2199
2300
2369
2438
2473
2509
2522
2536
2537
2539
2538
2538
2537
2537
2535
2533
2525
2517
2502
2488
2466
2445
2421
2397
2372
2348
2326
2304
2284
2265
2246
2228
2209
2191
2172
2153
2133
2114
2096
2078
2061
2045
2029
2013
1995
1978
1956
1934
1906
1879
1848
1817
1785
1754
1726
1698
1675
1653
1632
1612
1587
1563
1530
1498
1458
1418
1382
1347
1332
1317
1339
1362
1430
1498
1607
1716
1846
1977
2105
2233
2337
2442
2511
2581
2618
2655
2669
2684
2689
2694
2697
2701
2705
2710
2717
2724
2723
2723
2715
2707
2693
2679
2663
2647
2629
2612
2595
2578
2559
2540
2520
2500
2478
2457
2438
2419
2403
2388
2375
2363
2350
2338
2322
2306
2284
2263
2237
2212
2184
2157
2131
2106
2082
2058
2033
2009
1981
1953
1921
1889
1854
1819
1785
1752
1722
1693
1667
1641
1615
1589
1559
1529
1494
1459
1421
1384
1350
1316
1290
1264
1243
1222
1200
1179
1147
1115
1074
1034
1029
1024
1024
1024
1024
1024
1090
1157
1285
1414
1574
1735
1897
2059
2197
2336
2435
2534
2591
2649
2677
2705
2717
2729
2736
2744
2751
2759
2765
2772
2774
2777
2772
2768
2759
2751
2738
2726
2712
2699
2683
2668
2652
2636
2618
2601
2583
2566
2549
2533
2519
2505
2492
2480
2467
2455
2441
2427
2410
2394
2375
2356
2336
2316
2293
2271
2248
2225
2200
2175
2149
2123
2097
2071
2047
2023
2000
1978
1955
1933
1908
1884
1857
1830
1801
1773
1745
1718
1693
1669
1647
1625
1604
1583
1559
1536
1508
1481
1452
1424
1397
1371
1351
1332
1317
1302
1286
1270
1246
1222
1189
1156
1120
1085
1066
1048
1066
1085
1154
1224
1344
1464
1617
1771
1931
2092
2232
2372
2474
2577
2640
2703
2735
2768
2783
2799
2808
2817
2826
2836
2843
2850
2854
2859
2857
2856
2850
2845
2836
2827
2817
2807
2796
2785
2772
2760
2746
2733
2719
2706
2693
2681
2671
2662
2653
2645
2636
2627
2616
2605
2592
2579
2563
2548
2531
2514
2493
2473
2448
2423
2390
2357
2317
2277
2231
2186
2139
2093
2048
2003
1960
1918
1876
1835
1792
1749
1703
1658
1611
1565
1519
1474
1432
1391
1352
1314
1278
1243
1208
1174
1143
1112
1086
1060
1043
1027
1025
1024
1024
1024
1024
1024
1024
1024
1024
1024
1024
1024
1024
1024
1056
1089
1186
1284
1407
1531
1658
1785
1894
2004
2081
2159
2203
2248
2267
2287
2294
2302
2306
2311
2316
2322
2328
2335
2338
2342
2341
2341
2338
2335
2332
2330
2330
2330
2332
2334
2336
2338
2337
2337
2334
2332
2327
2323
2319
2316
2312
2309
2304
2300
2292
2284
2271
2258
2240
2222
2202
2183
2165
2147
2131
2115
2099
2084
2067
2051
2031
2011
1989
1968
1947
1927
1911
1896
1883
1871
1860
1849
1833
1817
1796
1776
1754
1733
1723
1713
1726
1740
1787
1834
1912
1991
2090
2190
2292
2394
2482
2570
2633
2696
2733
2771
2788
2805
2810
2815
2813
2812
2806
2801
2788
2776
2756
2736
2706
2677
2641
2605
2565
2525
2484
2443
2403
2364
2326
2289
2254
2220
2189
2158
2130
2103
2077
2052
2028
2005
1982
1960
1937
1915
1893
1872
1850
1829
1808
1787
1764
1742
1718
1694
1668
1643
1619
1595
1574
1553
1535
1518
1501
1484
1464
1444
1419
1394
1366
1339
1318
1298
1298
1299
1331
1364
1433
1503
1600
1698
1808
1919
2022
2125
2205
2285
2336
2388
2415
2443
2454
2466
2472
2479
2485
2491
2497
2503
2507
2511
2510
2509
2505
2502
2502
2503
2497
2492
2484
2477
2467
2457
2445
2434
2419
2405
2389
2373
2357
2341
2327
2314
2303
2292
2282
2273
2261
2249
2233
2217
2196
2175
2150
2125
2100
2075
2051
2028
2007
1986
1965
1944
1920
1897
1871
1845
1816
1788
1761
1734
1709
1684
1663
1643
1622
1601
1577
1554
1526
1498
1468
1438
1409
1381
1358
1336
1319
1302
1285
1268
1244
1220
1186
1152
1113
1075
1049
1024
1028
1033
1086
1139
1240
1342
1480
1619
1768
1917
2051
2185
2285
2385
2446
2507
2536
2566
2578
2590
2596
2603
2610
2617
2623
2630
2632
2634
2629
2625
2613
2602
2587
2572
2556
2541
2525
2510
2493
2477
2457
2438
2416
2395
2372
2350
2330
2311
2295
2280
2267
2255
2241
2228
2211
2194
2172
2150
2125
2100
2074
2049
2026
2003
1981
1960
1937
1915
1887
1860
1827
1795
1760
1726
1695
1664
1638
1613
1593
1573
1551
1530
1501
1473
1435
1398
1359
1320
1296
1272
1279
1287
1337
1387
1478
1569
1684
1800
1918
2036
2134
2232
2298
2365
2399
2434
2446
2458
2459
2460
2458
2457
2454
2452
2447
2443
2432
2422
2406
2390
2369
2348
2325
2303
2280
2257
2233
2210
2187
2164
2141
2118
2097
2077
2060
2044
2031
2018
2006
1995
1980
1966
1947
1929
1906
1883
1860
1837
1815
1794
1775
1756
1734
1712
1683
1654
1618
1583
1547
1511
1489
1467
1474
1481
1525
1570
1649
1729
1828
1927
2026
2126
2206
2287
2340
2393
2417
2442
2447
2453
2448
2444
2436
2429
2420
2411
2399
2388
2371
2355
2332
2310
2283
2257
2227
2198
2168
2138
2110
2082
2056
2031
2008
1985
1964
1943
1924
1905
1884
1863
1838
1814
1783
1752
1718
1684
1649
1614
1580
1547
1513
1479
1440
1401
1352
1303
1247
1191
1141
1092
1067
1042
1060
1078
1147
1217
1330
1443
1577
1712
1839
1966
2063
2161
2218
2276
2301
2327
2335
2343
2352
2361
2379
2397
2423
2450
2477
2505
2525
2545
2553
2562
2558
2555
2543
2531
2513
2496
2474
2453
2428
2403
2374
2346
2318
2290
2264
2238
2216
2194
2172
2150
2125
2101
2068
2036
1996
1956
1911
1866
1821
1777
1735
1694
1653
1612
1567
1522
1470
1418
1365
1312
1273
1235
1232
1229
1280
1332
1444
1556
1718
1880
2065
2250
2427
2605
2748
2891
2981
3071
3071
3071
3071
3071
3071
3071
3071
3071
3071
3071
3071
3071
3071
3071
3064
3058
3023
2989
2948
2907
2862
2817
2772
2727
2683
2639
2598
2558
2521
2485
2453
2421
2393
2366
2341
2317
2292
2268
2242
2216
2187
2159
2130
2102
2073
2045
2018
1991
1963
1936
1906
1877
1844
1812
1778
1745
1715
1686
1666
1647
1641
1635
1642
1650
1663
1677
1689
1702
1704
1707
1698
1689
1671
1654
1635
1616
1600
1584
1571
1559
1543
1528
1502
1476
1437
1398
1352
1307
1270
1234
1227
1220
1254
1289
1368
1448
1557
1667
1785
1903
2006
2110
2184
2259
2301
2343
2360
2377
2381
2385
2385
2386
2388
2390
2394
2398
2400
2402
2400
2398
2392
2386
2375
2365
2351
2338
2321
2305
2285
2266
2245
2225
2204
2183
2164
2145
2128
2111
2096
2081
2064
2047
2026
2006
1982
1958
1931
1905
1881
1857
1839
1821
1813
1805
1807
1810
1821
1832
1848
1864
1879
1895
1905
1915
1916
1917
1910
1903
1889
1875
1859
1843
1828
1813
1798
1784
1765
1746
1717
1688
1646
1605
1555
1506
1462
1418
1396
1375
1391
1407
1465
1524
1616
1708
1815
1922
2021
2121
2196
2271
2313
2355
2368
2382
2378
2374
2364
2355
2347
2340
2335
2330
2324
2318
2306
2295
2276
2257
2229
2202
2175
2148
2130
2112
2111
2110
2130
2150
2188
2227
2276
2326
2377
2428
2473
2519
2552
2586
2606
2626
2632
2638
2633
2628
2612
2597
2574
2551
2522
2494
2460
2426
2386
2346
2295
2245
2181
2117
2038
1960
1872
1784
1701
1618
1558
1498
1480
1462
1493
1525
1602
1680
1784
1889
1996
2103
2189
2275
2327
2380
2400
2420
2417
2415
2403
2392
2380
2369
2358
2348
2337
2326
2311
2296
2270
2244
2210
2177
2142
2107
2074
2041
2012
1983
1953
1924
1893
1863
1830
1797
1767
1737
1711
1686
1665
1645
1624
1604
1576
1549
1509
1470
1422
1374
1326
1278
1241
1205
1186
1168
1168
1168
1178
1189
1205
1221
1241
1262
1299
1337
1405
1474
1588
1703
1863
2024
2215
2406
2600
2794
2932
3071
3071
3071
3071
3071
3071
3071
3071
3071
3071
3071
3052
3034
3004
2974
2942
2911
