0
1548
1528
1503
1479
1445
1411
1367
1323
1283
1243
1227
1211
1241
1272
1356
1440
1571
1702
1853
2005
2145
2286
2389
2492
2545
2598
2607
2616
2596
2577
2547
2518
2492
2466
2445
2425
2408
2392
2372
2353
2329
2305
2274
2243
2209
2176
2142
2108
2078
2049
2024
1999
1982
1966
1954
1942
1932
1922
1909
1897
1879
1862
1840
1818
1795
1773
1752
1732
1712
1693
1669
1645
1609
1574
1525
1477
1425
1374
1338
1303
1310
1317
1379
1442
1561
1681
1834
1987
2142
2298
2422
2547
2621
2696
2719
2743
2730
2718
2689
2661
2632
2603
2580
2557
2539
2522
2502
2483
2458
2434
2400
2367
2328
2290
2246
2203
2161
2120
2082
2045
2016
1987
1966
1945
1930
1915
1901
1887
1870
1853
1830
1807
1782
1757
1733
1709
1689
1669
1649
1630
1604
1578
1538
1499
1452
1406
1366
1326
1319
1313
1362
1411
1524
1638
1801
1964
2147
2330
2492
2654
2768
2883
2939
2995
3003
3012
2994
2976
2952
2928
2910
2892
2880
2868
2855
2842
2823
2804
2775
2747
2714
2681
2646
2611
2579
2547
2518
2489
2464
2440
2418
2396
2378
2360
2345
2331
2321
2311
2302
2293
2284
2275
2263
2252
2236
2220
2198
2176
2150
2124
2092
2061
2027
1994
1960
1927
1897
1868
1842
1816
1794
1772
1748
1725
1698
1672
1639
1607
1574
1542
1512
1483
1460
1438
1420
1402
1382
1363
1336
1310
1276
1242
1206
1170
1141
1113
1095
1078
1068
1058
1042
1027
1025
1024
1024
1024
1024
1024
1024
1024
1039
1054
1191
1329
1522
1716
1930
2144
2336
2528
2665
2802
2871
2941
2954
2967
2948
2930
2903
2877
2858
2840
2831
2822
2817
2813
2803
2794
2778
2762
2739
2717
2692
2668
2643
2618
2593
2568
2540
2513
2484
2455
2425
2396
2371
2347
2328
2310
2298
2286
2276
2267
2254
2242
2223
2205
2181
2157
2130
2104
2080
2056
2034
2013
1994
1976
1954
1933
1907
1882
1851
1821
1790
1760
1733
1706
1685
1665
1649
1633
1616
1600
1579
1558
1533
1508
1482
1457
1438
1419
1408
1397
1392
1388
1379
1370
1349
1329
1295
1262
1230
1198
1188
1178
1214
1251
1343
1436
1578
1720
1883
2047
2198
2350
2459
2569
2626
2683
2692
2702
2684
2666
2640
2614
2593
2572
2556
2541
2527
2514
2495
2477
2452
2427
2396
2365
2334
2304
2274
2245
2219
2193
2167
2142
2119
2096
2076
2057
2043
2029
2019
2009
2000
1991
1977
1964
1944
1924
1898
1872
1845
1818
1793
1769
1748
1727
1703
1679
1647
1616
1574
1533
1493
1454
1432
1410
1427
1445
1512
1579
1692
1805
1942
2079
2211
2343
2442
2542
2596
2651
2662
2674
2659
2644
2620
2596
2576
2557
2547
2538
2532
2526
2514
2503
2483
2464
2435
2407
2375
2344
2313
2282
2254
2226
2200
2174
2148
2122
2095
2068
2043
2019
1999
1979
1966
1954
1945
1937
1927
1917
1898
1880
1852
1825
1790
1755
1722
1689
1663
1637
1619
1602
1584
1567
1540
1514
1473
1433
1386
1339
1304
1270
1274
1279
1340
1402
1523
1644
1806
1968
2139
2311
2455
2600
2697
2794
2836
2878
2880
2883
2863
2843
2822
2801
2785
2770
2762
2755
2748
2742
2732
2723
2707
2691
2670
2650
2625
2601
2575
2550
2524
2499
2474
2450
2428
2407
2389
2372
2358
2345
2334
2324
2315
2306
2296
2286
2270
2255
2237
2220
2198
2176
2152
2129
2102
2075
2046
2018
1987
1956
1926
1897
1869
1842
1818
1794
1769
1745
1718
1692
1662
1632
1601
1570
1541
1513
1490
1468
1449
1430
1410
1390
1362
1334
1300
1266
1228
1190
1160
1131
1112
1094
1084
1075
1061
1047
1035
1024
1024
1024
1024
1024
1024
1024
1034
1044
1176
1308
1498
1688
1901
2114
2309
2504
2644
2785
2860
2935
2950
2966
2948
2930
2902
2874
2853
2832
2820
2808
2801
2794
2784
2774
2758
2742
2721
2700
2678
2657
2635
2613
2592
2572
2550
2529
2507
2486
2464
2443
2426
2409
2395
2382
2373
2364
2354
2345
2333
2322
2305
2288
2268
2249
2227
2206
2184
2163
2141
2120
2097
2074
2049
2025
2000
1976
1952
1929
1908
1888
1868
1848
1828
1809
1787
1765
1742
1719
1696
1674
1656
1638
1623
1608
1593
1579
1560
1541
1516
1492
1464
1437
1413
1389
1372
1356
1347
1339
1330
1321
1302
1284
1251
1218
1180
1143
1121
1100
1122
1145
1228
1311
1456
1602
1785
1968
2154
2340
2490
2641
2736
2831
2867
2904
2899
2895
2870
2846
2822
2798
2782
2766
2757
2749
2741
2733
2720
2707
2688
2669
2646
2623
2598
2574
2551
2529
2506
2483
2461
2439
2416
2394
2373
2353
2335
2318
2305
2293
2283
2274
2265
2256
2244
2232
2215
2198
2175
2153
2128
2103
2077
2052
2029
2007
1986
1966
1946
1927
1905
1883
1858
1833
1806
1779
1753
1728
1706
1684
1668
1652
1637
1623
1607
1592
1570
1549
1523
1497
1471
1446
1427
1408
1396
1385
1378
1371
1357
1343
1316
1290
1252
1215
1184
1153
1152
1152
1206
1260
1376
1493
1660
1828
2013
2199
2366
2533
2650
2768
2826
2884
2892
2901
2880
2860
2833
2807
2787
2768
2757
2747
2739
2732
2720
2709
2690
2672
2647
2623
2597
2571
2545
2520
2496
2473
2449
2425
2401
2378
2354
2331
2311
2292
2277
2262
2252
2242
2233
2224
2213
2202
2185
2168
2145
2123
2098
2073
2049
2026
2004
1982
1962
1943
1921
1899
1874
1850
1821
1792
1765
1738
1714
1691
1674
1658
1643
1629
1614
1599
1577
1556
1529
1502
1474
1447
1426
1405
1392
1379
1371
1364
1352
1340
1315
1290
1251
1212
1175
1139
1129
1119
1162
1206
1314
1423
1589
1755
1946
2137
2315
2494
2625
2757
2828
2900
2917
2935
2919
2904
2878
2852
2830
2809
2795
2782
2771
2761
2747
2733
2713
2693
2667
2642
2616
2591
2565
2539
2514
2490
2463
2437
2410
2384
2358
2332
2312
2292
2278
2265
2256
2248
2239
2231
2218
2205
2185
2165
2140
2116
2091
2066
2044
2023
2003
1984
1964
1945
1920
1895
1865
1835
1802
1770
1741
1712
1688
1664
1646
1628
1609
1591
1568
1545
1516
1487
1457
1428
1404
1381
1365
1350
1339
1328
1312
1296
1267
1238
1198
1159
1125
1091
1089
1087
1140
1193
1311
1430
1599
1768
1957
2146
2313
2481
2598
2715
2769
2824
2826
2829
2802
2776
2743
2711
2684
2658
2639
2620
2601
2583
2558
2533
2499
2465
2426
2388
2350
2312
2280
2248
2220
2192
2167
2143
2117
2091
2067
2044
2023
2003
1990
1977
1969
1961
1952
1944
1928
1913
1887
1861
1826
1791
1755
1719
1689
1660
1639
1619
1602
1585
1563
1542
1507
1473
1430
1388
1351
1314
1307
1300
1340
1381
1475
1570
1704
1838
1986
2134
2264
2395
2486
2577
2620
2664
2668
2673
2653
2634
2607
2580
2554
2528
2505
2483
2460
2438
2413
2389
2359
2330
2297
2265
2230
2195
2161
2128
2096
2065
2040
2016
1997
1978
1966
1955
1945
1936
1925
1915
1900
1885
1865
1846
1825
1804
1785
1767
1749
1732
1712
1693
1664
1636
1598
1560
1518
1477
1451
1426
1436
1447
1511
1575
1689
1804
1952
2100
2250
2401
2523
2646
2722
2798
2826
2855
2850
2845
2825
2806
2788
2771
2762
2753
2749
2745
2740
2735
2722
2709
2687
2666
2638
2611
2582
2554
2527
2500
2478
2456
2435
2415
2398
2381
2366
2351
2340
2329
2321
2313
2307
2301
2293
2286
2277
2268
2254
2241
2221
2201
2176
2152
2127
2103
2079
2056
2034
2012
1988
1965
1940
1915
1886
1858
1830
1803
1777
1751
1729
1708
1689
1670
1650
1631
1606
1582
1554
1526
1497
1468
1442
1417
1397
1378
1361
1344
1324
1304
1276
1248
1211
1175
1138
1101
1072
1044
1034
1024
1024
1024
1024
1024
1024
1024
1024
1024
1024
1024
1024
1024
1035
1046
1178
1311
1498
1685
1893
2101
2289
2478
2614
2750
2821
2892
2907
2922
2904
2886
2860
2834
2813
2793
2782
2772
2764
2756
2745
2734
2715
2697
2674
2651
2627
2603
2581
2559
2539
2520
2500
2481
2460
2439
2416
2394
2373
2352
2336
2320
2307
2295
2286
2278
2267
2257
2242
2227
2206
2185
2161
2137
2112
2087
2065
2043
2022
2002
1982
1962
1939
1917
1890
1864
1836
1809
1783
1758
1737
1717
1701
1685
1670
1655
1637
1620
1596
1572
1546
1520
1495
1471
1454
1438
1426
1414
1403
1393
1373
1353
1322
1291
1254
1218
1195
1172
1186
1200
1268
1337
1460
1583
1743
1903
2068
2233
2371
2509
2599
2690
2729
2769
2770
2772
2756
2741
2723
2705
2693
2682
2675
2668
2661
2654
2642
2630
2613
2596
2575
2555
2534
2513
2491
2470
2448
2426
2403
2380
2358
2336
2316
2296
2280
2265
2253
2241
2231
2221
2208
2196
2181
2166
2147
2129
2109
2090
2069
2049
2027
2006
1982
1959
1933
1908
1881
1855
1831
1807
1786
1766
1748
1730
1711
1693
1670
1648
1621
1595
1569
1543
1521
1500
1487
1474
1463
1453
1439
1426
1400
1375
1337
1300
1264
1228
1219
1211
1251
1291
1390
1489
1636
1784
1952
2121
2276
2431
2544
2658
2719
2780
2795
2811
2798
2786
2766
2747
2730
2714
2704
2694
2686
2678
2667
2657
2640
2624
2604
2584
2561
2538
2515
2492
2468
2445
2422
2399
2375
2352
2331
2310
2292
2274
2259
2244
2231
2218
2204
2191
2175
2159
2142
2125
2106
2087
2067
2048
2025
2002
1977
1952
1923
1894
1866
1839
1812
1786
1764
1743
1723
1704
1682
1661
1635
1609
1579
1550
1521
1493
1471
1449
1434
1420
1408
1396
1377
1359
1327
1296
1254
1213
1180
1147
1147
1147
1203
1259
1375
1492
1658
1825
2007
2189
2350
2511
2622
2734
2788
2843
2850
2858
2841
2825
2803
2782
2767
2752
2743
2735
2727
2720
2707
2695
2677
2659
2636
2613
2591
2569
2546
2523
2500
2477
2451
2426
2400
2375
2351
2327
2309
2292
2280
2268
2260
2253
2243
2234
2218
2203
2181
2159
2134
2109
2083
2058
2035
2013
1990
1968
1943
1919
1889
1860
1829
1798
1767
1737
1712
1687
1666
1645
1625
1606
1582
1558
1529
1500
1469
1438
1411
1385
1367
1350
1339
1328
1314
1301
1276
1251
1212
1174
1136
1098
1084
1071
1109
1147
1250
1353
1515
1678
1870
2062
2246
2431
2571
2712
2794
2876
2901
2927
2916
2906
2881
2856
2832
2809
2791
2774
2761
2748
2733
2719
2700
2682
2659
2636
2611
2586
2559
2533
2507
2481
2454
2428
2403
2378
2354
2331
2312
2294
2278
2262
2248
2235
2221
2207
2191
2175
2156
2138
2118
2099
2078
2057
2034
2012
1985
1959
1930
1901
1870
1839
1810
1782
1757
1733
1712
1692
1670
1648
1623
1598
1568
1539
1510
1481
1457
1434
1419
1405
1394
1384
1369
1354
1327
1300
1262
1225
1192
1159
1156
1154
1205
1256
1371
1487
1653
1820
2008
2196
2365
2534
2656
2778
2839
2901
2912
2923
2903
2884
2857
2830
2808
2786
2772
2759
2748
2737
2723
2710
2690
2670
2646
2622
2597
2572
2548
2524
2500
2477
2452
2428
2402
2377
2353
2330
2310
2290
2277
2264
2254
2245
2236
2228
2214
2200
2179
2159
2133
2107
2081
2055
2030
2006
1984
1962
1940
1918
1892
1866
1836
1806
1775
1744
1716
1688
1667
1646
1629
1613
1598
1583
1561
1540
1513
1487
1458
1429
1405
1382
1367
1352
1343
1334
1320
1307
1280
1254
1213
1172
1132
1093
1079
1065
1104
1143
1248
1353
1515
1678
1866
2055
2232
2410
2541
2673
2745
2817
2834
2851
2834
2817
2787
2758
2732
2706
2686
2666
2651
2636
2618
2600
2577
2555
2527
2500
2471
2442
2412
2382
2353
2324
2296
2268
2242
2216
2193
2171
2152
2134
2119
2104
2092
2080
2066
2053
2039
2025
2008
1992
1974
1957
1937
1917
1893
1870
1842
1814
1784
1754
1725
1697
1674
1652
1635
1618
1602
1587
1565
1543
1510
1478
1439
1401
1373
1346
1350
1354
1410
1466
1574
1682
1829
1976
2129
2282
2411
2540
2621
2703
2734
2765
2756
2748
2721
2694
2665
2636
2613
2591
2573
2556
2539
2522
2501
2481
2455
2430
2401
2373
2345
2318
2290
2262
2236
2211
2185
2160
2138
2117
2099
2082
2069
2057
2046
2036
2025
2014
1999
1984
1964
1945
1923
1901
1880
1859
1839
1819
1799
1780
1757
1734
1707
1681
1653
1625
1601
1578
1561
1544
1533
1522
1507
1493
1469
1445
1408
1372
1337
1302
1288
1274
1306
1339
1430
1521
1664
1807
1976
2146
2307
2468
2589
2710
2776
2843
2859
2875
2859
2843
2814
2786
2761
2736
2718
2701
2689
2678
2665
2653
2638
2623
2604
2586
2570
2554
2532
2511
2487
2463
2436
2410
2383
2357
2333
2309
2290
2271
2256
2242
2231
2221
2209
2197
2182
2167
2147
2128
2106
2085
2061
2037
2013
1989
1961
1933
1904
1875
1843
1812
1783
1755
1730
1705
1683
1662
1639
1617
1590
1563
1531
1499
1465
1431
1402
1373
1352
1332
1316
1300
1280
1261
1228
1195
1150
1105
1064
1024
1024
1024
1058
1092
1206
1320
1492
1664
1863
2062
2245
2429
2562
2695
2762
2829
2837
2845
2817
2789
2751
2714
2683
2652
2632
2612
2596
2580
2560
2541
2512
2484
2450
2416
2380
2344
2311
2278
2247
2217
2189
2161
2131
2101
2072
2043
2017
1991
1971
1952
1938
1925
1912
1900
1882
1865
1839
1813
1779
1746
1712
1679
1649
1620
1598
1576
1553
1531
1501
1472
1428
1385
1336
1287
1248
1210
1208
1206
1257
1309
1418
1527
1676
1825
1984
2144
2281
2418
2510
2602
2641
2681
2680
2679
2654
2629
2600
2572
2547
2523
2505
2487
2469
2451
2428
2406
2373
2341
2303
2265
2226
2187
2153
2120
2094
2068
2050
2033
2019
2005
1991
1977
1959
1942
1922
1902
1883
1864
1849
1834
1822
1811
1798
1785
1762
1739
1702
1666
1617
1568
1522
1477
1454
1431
1452
1473
1544
1616
1731
1846
1981
2116
2242
2368
2460
2553
2599
2646
2651
2656
2634
2612
2579
2547
2516
2486
2461
2437
2417
2397
2374
2352
2324
2296
2260
2225
2186
2148
2110
2072
2041
2010
1987
1965
1951
1938
1928
1919
1909
1899
1884
1869
1849
1829
1807
1786
1765
1745
1726
1708
1686
1665
1631
1598
1554
1511
1461
1412
1374
1337
1334
1331
1383
1435
1545
1655
1808
1962
2126
2290
2429
2569
2657
2746
2779
2812
2801
2790
2759
2729
2699
2669
2649
2630
2617
2605
2591
2578
2553
2529
2495
2462
2422
2382
2344
2306
2272
2238
2210
2182
2153
2125
2096
2068
2039
2010
1986
1962
1944
1926
1912
1898
1882
1867
1843
1819
1784
1749
1708
1667
1626
1586
1555
1524
1499
1474
1445
1416
1372
1329
1270
1211
1149
1087
1055
1024
1035
1046
1136
1226
1384
1543
1743
1943
2143
2343
2502
2661
2757
2854
2889
2924
2915
2906
2878
2851
2823
2795
2775
2756
2740
2725
2709
2694
2672
2651
2626
2601
2572
2543
2512
2482
2448
2415
2379
2344
2307
2270
2236
2203
2175
2148
2128
2108
2092
2076
2059
2042
2017
1993
1962
1932
1897
1863
1830
1797
1764
1732
1699
1667
1627
1587
1541
1495
1445
1396
1354
1312
1282
1252
1232
1212
1190
1169
1134
1099
1061
1024
1024
1024
1024
1024
1024
1024
1113
1203
1365
1527
1716
1905
2083
2261
2391
2522
2592
2663
2677
2692
2673
2654
2623
2593
2568
2544
2528
2512
2503
2494
2483
2473
2458
2443
2422
2401
2376
2352
2324
2296
2266
2237
2207
2177
2149
2122
2098
2075
2058
2042
2029
2016
2003
1991
1974
1957
1936
1915
1891
1868
1846
1824
1804
1784
1761
1739
1708
1677
1635
1593
1547
1501
1468
1435
1435
1435
1485
1535
1633
1732
1863
1995
2128
2262
2371
2480
2545
2610
2631
2653
2641
2629
2603
2578
2552
2527
2509
2491
2479
2467
2456
2446
2430
2415
2392
2370
2340
2310
2277
2244
2211
2178
2149
2121
2097
2074
2056
2039
2022
2006
1989
1973
1953
1933
1912
1892
1871
1851
1835
1819
1803
1788
1769
1750
1721
1692
1651
1610
1565
1521
1489
1458
1460
1462
1511
1560
1655
1750
1875
2000
2126
2252
2353
2454
2512
2571
2587
2604
2590
2576
2549
2523
2498
2474
2457
2440
2429
2419
2408
2398
2382
2367
2344
2321
2291
2262
2230
2198
2166
2135
2109
2083
2062
2041
2026
2011
1998
1985
1972
1960
1944
1928
1910
1893
1875
1857
1841
1826
1810
1795
1776
1757
1727
1698
1646
1594
1526
1459
1411
1364
1358
1352
1405
1458
1571
1684
1837
1990
2146
2303
2431
2560
2635
2711
2735
2759
2745
2731
2704
2677
2652
2628
2615
2603
2597
2591
2583
2576
2558
2540
2509
2478
2437
2396
2352
2309
2268
2228
2196
2165
2142
2120
2105
2091
2078
2065
2051
2038
2019
2001
1980
1960
1939
1918
1900
1882
1863
1845
1821
1797
1759
1721
1669
1617
1561
1506
1468
1431
1438
1445
1514
1584
1714
1844
2014
2184
2355
2527
2665
2804
2885
2966
2991
3017
3002
2988
2960
2932
2908
2885
2875
2866
2863
2861
2857
2854
2840
2826
2800
2775
2741
2708
2674
2640
2610
2580
2556
2533
2514
2496
2483
2470
2460
2450
2443
2437
2430
2424
2416
2409
2395
2382
2364
2346
2322
2298
2273
2248
2223
2198
2174
2150
2126
2102
2076
2050
2022
1995
1968
1941
1916
1891
1870
1849
1828
1807
1784
1761
1732
1704
1673
1642
1611
1580
1556
1532
1513
1494
1478
1463
1442
1421
1391
1362
1325
1289
1254
1219
1194
1170
1157
1145
1135
1125
1104
1084
1054
1024
1024
1024
1024
1024
1024
1024
1094
1165
1335
1505
1719
1934
2153
2372
2548
2725
2832
2939
2973
3007
2989
2972
2931
2890
2851
2813
2789
2766
2755
2744
2738
2732
2722
2712
2696
2680
2659
2639
2617
2595
2574
2553
2531
2510
2489
2469
2448
2427
2409
2392
2379
2366
2358
2350
2343
2337
2330
2323
2311
2299
2283
2267
2247
2228
2207
2186
2163
2141
2118
2096
2071
2047
2024
2001
1978
1955
1936
1917
1899
1882
1865
1848
1828
1809
1789
1769
1748
1728
1710
1693
1677
1662
1647
1633
1614
1595
1571
1547
1520
1493
1469
1446
1431
1416
1409
1403
1396
1390
1375
1360
1330
1300
1264
1228
1205
1183
1201
1220
1298
1376
1515
1654
1831
2008
2187
2367
2510
2654
2740
2826
2852
2879
2862
2845
2809
2773
2740
2707
2685
2663
2652
2642
2635
2629
2621
2613
2599
2586
2568
2551
2530
2510
2489
2468
2445
2422
2400
2379
2358
2338
2322
2306
2295
2284
2276
2269
2262
2256
2248
2240
2228
2217
2202
2187
2169
2151
2131
2112
2091
2070
2048
2027
2004
1981
1960
1940
1920
1901
1885
1870
1854
1839
1823
1807
1788
1770
1751
1732
1714
1696
1681
1667
1654
1642
1628
1615
1596
1578
1555
1532
1507
1482
1462
1443
1431
1419
1413
1408
1396
1385
1362
1339
1302
1265
1230
1195
1183
1172
1212
1253
1357
1461
1621
1782
1969
2157
2332
2507
2635
2764
2830
2897
2907
2917
2892
2868
2831
2794
2763
2733
2713
2693
2681
2670
2658
2647
2633
2620
2600
2581
2560
2539
2515
2491
2467
2444
2419
2395
2371
2348
2327
2306
2289
2273
2262
2251
2243
2236
2229
2223
2215
2207
2194
2182
2166
2151
2131
2111
2090
2069
2045
2021
1998
1975
1952
1930
1910
1891
1872
1854
1836
1818
1798
1778
1756
1735
1713
1691
1672
1654
1639
1624
1612
1601
1587
1573
1554
1536
1511
1487
1463
1439
1419
1400
1390
1380
1373
1367
1357
1347
1322
1298
1262
1227
1194
1161
1157
1154
1206
1258
1376
1495
1668
1841
2036
2231
2407
2583
2708
2833
2892
2952
2956
2961
2931
2902
2865
2828
2796
2764
2744
2724
2709
2694
2679
2665
2645
2626
2603
2581
2556
2531
2505
2480
2455
2430
2405
2380
2356
2333
2312
2292
2277
2262
2252
2243
2236
2229
2223
2217
2206
2196
2183
2170
2152
2135
2117
2100
2079
2059
2038
2018
1995
1972
1949
1927
1905
1883
1864
1845
1828
1811
1794
1777
1758
1740
1720
1700
1679
1659
1642
1625
1611
1598
1586
1575
1560
1545
1525
1506
1482
1458
1437
1416
1401
1386
1379
1373
1367
1361
1346
1332
1302
1272
1234
1197
1172
1148
1165
1182
1262
1343
1490
1638
1830
2023
2223
2423
2588
2753
2857
2962
2998
3034
3021
3008
2969
2931
2892
2854
2825
2797
2779
2762
2747
2732
2714
2696
2671
2646
2617
2588
2559
2530
2503
2477
2453
2429
2406
2383
2359
2336
2314
2293
2273
2253
2239
2225
2214
2203
2194
2186
2173
2161
2144
2127
2104
2081
2055
2029
2004
1980
1959
1938
1921
1905
1889
1874
1857
1841
1822
1803
1782
1761
1742
1723
1707
1692
1680
1669
1656
1644
1628
1612
1588
1564
1537
1510
1484
1458
1441
1425
1416
1408
1401
1395
1380
1365
1336
1307
1269
1232
1206
1180
1190
1200
1267
1334
1460
1586
1753
1921
2093
2265
2406
2547
2630
2714
2739
2765
2745
2725
2684
2643
2600
2557
2522
2487
2458
2429
2400
2371
2338
2305
2268
2232
2193
2155
2119
2083
2050
2017
1988
1959
1934
1909
1893
1877
1871
1865
1873
1882
1897
1913
1929
1946
1952
1959
1953
1947
1928
1910
1887
1864
1841
1819
1798
1778
1753
1728
1695
1663
1623
1584
1551
1518
1510
1502
1538
1574
1660
1746
1873
2000
2140
2281
2407
2534
2620
2706
2745
2785
2783
2781
2755
2730
2697
2664
2636
2609
2588
2568
2551
2535
2515
2496
2468
2441
2406
2371
2332
2293
2255
2217
2186
2155
2130
2105
2087
2070
2054
2039
2023
2008
1989
1970
1950
1931
1910
1889
1870
1851
1829
1808
1783
1758
1726
1694
1656
1618
1579
1540
1508
1476
1454
1432
1418
1405
1389
1373
1346
1320
1280
1240
1200
1160
1142
1124
1156
1189
1283
1377
1528
1680
1859
2038
2207
2377
2502
2627
2692
2757
2767
2777
2753
2730
2695
2660
2629
2598
2572
2547
2524
2502
2475
2448
2417
2386
2352
2318
2288
2258
2232
2206
2183
2161
2136
2112
2087
2062
2037
2012
1993
1975
1964
1953
1947
1942
1935
1928
1914
1900
1876
1853
1826
1799
1774
1750
1732
1715
1700
1686
1667
1648
1614
1581
1537
1494
1453
1412
1400
1389
1427
1466
1563
1660
1802
1944
2102
2260
2398
2537
2630
2723
2762
2801
2797
2793
2764
2735
2701
2668
2640
2612
2592
2573
2556
2539
2522
2506
2484
2462
2437
2412
