0
2844
2847
2846
2846
2838
2831
2817
2803
2785
2768
2752
2736
2722
2708
2696
2684
2673
2663
2653
2643
2633
2624
2616
2608
2602
2596
2591
2587
2581
2576
2567
2559
2545
2531
2512
2494
2472
2451
2428
2406
2384
2362
2340
2318
2294
2270
2243
2217
2187
2158
2127
2097
2067
2038
2011
1984
1958
1933
1907
1881
1852
1824
1791
1759
1725
1692
1660
1628
1600
1572
1546
1521
1494
1468
1437
1406
1369
1333
1293
1254
1217
1180
1150
1120
1094
1069
1046
1024
1024
1024
1024
1024
1024
1024
1024
1024
1024
1024
1059
1095
1207
1319
1456
1594
1732
1870
1986
2103
2184
2266
2311
2357
2376
2396
2402
2408
2409
2411
2412
2414
2413
2412
2404
2396
2380
2365
2343
2321
2298
2275
2254
2233
2216
2200
2186
2173
2161
2149
2137
2126
2114
2103
2093
2083
2075
2068
2062
2056
2048
2040
2027
2015
1996
1977
1953
1929
1902
1876
1851
1826
1804
1783
1762
1741
1716
1692
1659
1627
1589
1551
1515
1479
1459
1439
1449
1459
1506
1553
1634
1716
1818
1921
2025
2130
2217
2305
2365
2425
2457
2489
2500
2512
2511
2511
2506
2502
2496
2490
2481
2472
2456
2441
2419
2398
2372
2346
2319
2293
2269
2246
2226
2207
2190
2173
2157
2142
2126
2111
2097
2083
2071
2059
2049
2039
2029
2019
2005
1992
1973
1954
1929
1904
1876
1849
1823
1797
1775
1754
1734
1714
1692
1670
1640
1611
1575
1539
1505
1471
1454
1437
1451
1465
1519
1573
1664
1755
1868
1981
2095
2210
2308
2406
2476
2547
2588
2630
2651
2672
2681
2691
2696
2701
2704
2707
2706
2706
2701
2696
2684
2673
2657
2641
2623
2606
2590
2574
2560
2547
2536
2526
2517
2509
2502
2495
2489
2483
2482
2481
2504
2528
2536
2545
2545
2545
2536
2528
2513
2499
2478
2458
2434
2411
2387
2363
2339
2315
2290
2266
2239
2213
2183
2153
2121
2089
2056
2023
1991
1960
1930
1901
1873
1846
1817
1788
1756
1724
1688
1653
1616
1579
1544
1509
1477
1446
1416
1387
1355
1324
1287
1250
1206
1163
1119
1075
1049
1024
1024
1024
1024
1024
1024
1024
1024
1024
1024
1024
1024
1024
1024
1024
1024
1024
1090
1157
1286
1415
1568
1722
1874
2026
2154
2282
2372
2463
2517
2571
2598
2625
2638
2652
2661
2670
2677
2684
2687
2691
2689
2687
2678
2669
2655
2642
2628
2614
2601
2589
2578
2568
2559
2550
2541
2532
2524
2516
2509
2502
2497
2493
2490
2488
2484
2481
2474
2468
2457
2447
2432
2417
2400
2383
2365
2347
2328
2310
2291
2272
2251
2230
2206
2183
2158
2133
2108
2083
2059
2036
2014
1992
1970
1948
1924
1901
1875
1850
1824
1798
1773
1749
1727
1706
1686
1666
1645
1624
1600
1577
1550
1523
1495
1468
1444
1420
1400
1381
1364
1348
1329
1310
1283
1257
1225
1193
1164
1136
1127
1118
1144
1170
1239
1309
1417
1526
1657
1788
1919
2050
2160
2271
2349
2428
2475
2523
2547
2571
2582
2593
2598
2604
2606
2609
2608
2607
2600
2594
2582
2570
2554
2538
2520
2502
2484
2467
2450
2434
2418
2403
2389
2375
2362
2350
2339
2329
2320
2311
2303
2296
2288
2280
2270
2261
2249
2237
2222
2208
2191
2174
2154
2134
2112
2091
2069
2047
2024
2002
1981
1960
1938
1917
1895
1873
1849
1825
1799
1774
1748
1722
1698
1675
1653
1632
1612
1592
1569
1547
1519
1491
1458
1426
1395
1365
1349
1333
1344
1356
1403
1450
1530
1610
1710
1811
1914
2017
2105
2194
2257
2321
2358
2395
2412
2429
2435
2441
2442
2444
2442
2441
2435
2429
2415
2402
2381
2361
2335
2310
2284
2258
2234
2210
2191
2172
2156
2140
2125
2110
2095
2081
2066
2052
2039
2026
2015
2004
1993
1983
1971
1959
1942
1926
1903
1881
1853
1826
1798
1770
1744
1719
1696
1674
1650
1627
1599
1572
1536
1501
1462
1423
1390
1357
1345
1334
1357
1380
1442
1504
1599
1695
1808
1922
2033
2144
2236
2328
2391
2455
2491
2528
2543
2559
2563
2568
2567
2567
2564
2561
2555
2549
2548
2548
2538
2528
2507
2487
2461
2436
2411
2387
2365
2343
2323
2303
2284
2265
2245
2225
2204
2184
2164
2145
2127
2110
2093
2076
2057
2039
2015
1991
1959
1928
1890
1853
1813
1774
1736
1699
1665
1631
1597
1564
1525
1486
1437
1388
1333
1278
1228
1179
1154
1130
1149
1169
1241
1313
1432
1552
1698
1844
1990
2137
2258
2379
2463
2547
2593
2639
2657
2675
2678
2681
2678
2675
2669
2663
2651
2640
2620
2601
2574
2548
2517
2486
2455
2424
2395
2367
2341
2316
2291
2267
2242
2218
2193
2169
2147
2126
2108
2091
2077
2063
2048
2033
2011
1990
1960
1930
1893
1856
1816
1776
1739
1702
1667
1633
1597
1562
1519
1476
1422
1369
1311
1254
1208
1163
1150
1138
1176
1214
1306
1398
1534
1670
1823
1977
2121
2265
2376
2488
2559
2630
2665
2700
2711
2723
2723
2723
2718
2713
2704
2696
2680
2664
2638
2613
2580
2548
2512
2477
2443
2410
2380
2351
2325
2299
2274
2250
2225
2201
2177
2153
2132
2111
2093
2076
2060
2045
2026
2008
1983
1959
1927
1895
1858
1822
1785
1749
1716
1683
1652
1621
1585
1550
1503
1457
1401
1346
1291
1237
1204
1171
1180
1189
1254
1319
1436
1554
1705
1857
2014
2171
2306
2441
2536
2632
2686
2740
2762
2784
2788
2793
2790
2788
2782
2776
2764
2753
2733
2714
2684
2654
2618
2582
2544
2507
2473
2440
2411
2383
2358
2334
2310
2287
2263
2239
2216
2193
2173
2153
2136
2120
2104
2089
2069
2050
2023
1996
1960
1925
1885
1845
1804
1764
1728
1692
1658
1624
1586
1548
1499
1450
1391
1333
1274
1215
1176
1137
1138
1140
1195
1251
1359
1468
1611
1754
1904
2054
2184
2315
2408
2502
2557
2612
2636
2660
2665
2671
2666
2662
2651
2641
2621
2602
2573
2544
2506
2469
2427
2385
2344
2303
2267
2232
2201
2170
2143
2117
2093
2069
2048
2027
2009
1992
1978
1964
1949
1935
1916
1897
1869
1841
1805
1770
1730
1691
1653
1615
1580
1545
1510
1476
1433
1391
1338
1286
1227
1169
1124
1079
1069
1059
1104
1149
1251
1354
1499
1645
1803
1962
2104
2247
2353
2459
2526
2594
2636
2678
2710
2743
2778
2814
2853
2893
2927
2961
2978
2995
2986
2978
2945
2913
2862
2811
2751
2692
2632
2572
2517
2463
2416
2369
2331
2293
2262
2231
2205
2180
2156
2132
2105
2079
2048
2017
1983
1950
1917
1884
1852
1821
1789
1758
1720
1683
1633
1584
1524
1464
1405
1346
1309
1272
1278
1284
1346
1409
1525
1641
1790
1940
2093
2247
2377
2507
2597
2687
2735
2783
2799
2815
2813
2811
2802
2794
2782
2771
2756
2741
2719
2697
2666
2635
2598
2562
2523
2485
2450
2416
2388
2361
2340
2319
2302
2286
2269
2253
2234
2216
2194
2172
2147
2122
2095
2069
2041
2013
1981
1950
1912
1874
1829
1784
1734
1684
1633
1582
1536
1490
1451
1413
1378
1344
1308
1272
1226
1181
1128
1075
1049
1024
1024
1024
1024
1024
1092
1160
1291
1423
1588
1753
1924
2095
2245
2396
2508
2621
2693
2765
2804
2843
2861
2880
2889
2899
2904
2910
2911
2912
2906
2900
2886
2873
2853
2833
2810
2787
2765
2743
2723
2704
2687
2670
2655
2641
2628
2616
2605
2594
2586
2578
2571
2564
2556
2548
2537
2526
2509
2493
2470
2448
2420
2393
2363
2333
2303
2274
2245
2216
2188
2160
2131
2102
2072
2042
2011
1980
1950
1920
1892
1864
1838
1813
1787
1762
1735
1709
1679
1650
1619
1588
1558
1528
1501
1474
1450
1426
1403
1380
1354
1329
1299
1270
1238
1206
1175
1145
1119
1094
1072
1051
1037
1024
1024
1024
1024
1024
1024
1024
1024
1024
1024
1024
1038
1052
1152
1252
1383
1515
1658
1801
1932
2063
2165
2267
2335
2403
2440
2478
2495
2512
2518
2524
2524
2525
2521
2517
2507
2498
2481
2465
2442
2420
2395
2370
2346
2322
2301
2280
2264
2248
2237
2226
2219
2212
2207
2203
2198
2194
2187
2181
2170
2160
2145
2131
2113
2095
2074
2054
2031
2008
1983
1958
1929
1901
1871
1841
1810
1780
1751
1723
1698
1673
1649
1626
1600
1575
1544
1514
1480
1446
1415
1384
1370
1357
1374
1391
1447
1503
1595
1688
1804
1920
2040
2160
2264
2369
2447
2525
2573
2622
2648
2675
2688
2701
2708
2715
2719
2724
2726
2728
2725
2723
2715
2707
2694
2682
2668
2654
2640
2627
2615
2603
2593
2584
2577
2570
2565
2560
2557
2554
2552
2550
2547
2545
2541
2537
2530
2524
2513
2503
2490
2478
2463
2449
2433
2418
2401
2385
2367
2350
2330
2311
2291
2272
2252
2232
2212
2192
2171
2151
2129
2108
2084
2060
2034
2009
1982
1955
1928
1902
1876
1851
1825
1800
1773
1747
1719
1691
1662
1633
1604
1575
1547
1520
1493
1467
1440
1414
1385
1357
1326
1296
1266
1237
1211
1185
1164
1144
1127
1111
1093
1075
1051
1027
1025
1024
1024
1024
1024
1024
1024
1024
1079
1134
1243
1352
1486
1621
1759
1898
2019
2140
2230
2321
2379
2437
2469
2501
2518
2535
2545
2555
2562
2570
2573
2577
2576
2575
2568
2561
2550
2540
2527
2515
2504
2494
2485
2477
2471
2465
2460
2456
2453
2451
2450
2450
2451
2452
2454
2457
2458
2459
2457
2456
2450
2444
2434
2425
2413
2401
2387
2373
2357
2342
2324
2307
2287
2268
2246
2225
2204
2183
2162
2141
2120
2100
2079
2059
2036
2014
1989
1965
1940
1915
1890
1866
1843
1820
1797
1774
1750
1727
1701
1675
1647
1620
1593
1566
1543
1520
1500
1481
1462
1444
1422
1400
1372
1344
1313
1282
1259
1237
1237
1238
1273
1309
1383
1458
1563
1669
1788
1907
2019
2131
2220
2310
2370
2430
2463
2497
2512
2528
2535
2542
2546
2550
2552
2554
2551
2549
2540
2532
2517
2503
2484
2466
2446
2426
2406
2387
2370
2354
2338
2323
2309
2296
2283
2271
2260
2249
2239
2230
2222
2215
2208
2201
2194
2187
2177
2167
2154
2142
2126
2110
2091
2073
2053
2034
2015
1996
1978
1960
1941
1922
1901
1881
1857
1833
1806
1780
1752
1725
1699
1674
1650
1627
1605
1583
1558
1534
1499
1464
1424
1385
1354
1323
1312
1301
1323
1345
1405
1465
1557
1650
1760
1870
1977
2084
2171
2259
2318
2377
2409
2441
2453
2466
2468
2471
2470
2469
2466
2463
2454
2446
2430
2414
2391
2368
2340
2312
2284
2256
2231
2207
2186
2165
2147
2130
2113
2097
2081
2066
2052
2038
2026
2014
2003
1993
1982
1972
1956
1941
1918
1896
1866
1836
1802
1769
1735
1702
1672
1642
1613
1585
1555
1525
1488
1452
1410
1368
1328
1289
1265
1242
1249
1256
1304
1352
1437
1523
1633
1743
1857
1971
2070
2169
2240
2311
2354
2397
2418
2439
2447
2456
2457
2459
2456
2453
2444
2436
2419
2403
2381
2359
2335
2311
2284
2257
2232
2207
2185
2163
2143
2124
2106
2089
2075
2061
2050
2040
2033
2027
2021
2016
2008
2000
1986
1972
1951
1931
1907
1883
1858
1834
1810
1787
1762
1737
1705
1674
1634
1594
1548
1502
1463
1424
1408
1392
1415
1438
1506
1575
1682
1790
1918
2046
2172
2298
2402
2506
2578
2650
2691
2732
2750
2769
2775
2782
2782
2783
2780
2777
2768
2760
2744
2728
2705
2682
2654
2627
2599
2572
2547
2523
2503
2483
2466
2449
2433
2418
2402
2386
2371
2356
2341
2326
2312
2298
2282
2267
2246
2225
2196
2168
2131
2095
2054
2013
1972
1932
1894
1856
1820
1784
1743
1703
1653
1603
1543
1483
1421
1359
1311
1263
1249
1236
1270
1304
1387
1470
1589
1709
1842
1975
2097
2220
2314
2408
2469
2530
2563
2596
2611
2627
2635
2643
2647
2652
2654
2656
2653
2651
2642
2634
2621
2609
2595
2582
2571
2560
2552
2545
2542
2539
2540
2542
2545
2549
2554
2560
2566
2572
2577
2582
2591
2601
2606
2611
2609
2607
2598
2590
2576
2563
2545
2527
2505
2483
2458
2433
2405
2378
2349
2321
2291
2261
2230
2199
2166
2133
2098
2064
2027
1991
1955
1919
1884
1850
1817
1785
1753
1721
1688
1655
1619
1584
1547
1510
1474
1439
1407
1376
1348
1321
1295
1269
1239
1209
1173
1138
1098
1059
1041
1024
1024
1024
1024
1024
1024
1024
1024
1024
1024
1024
1024
1024
1024
1024
1024
1024
1032
1041
1145
1250
1389
1528
1679
1830
1968
2107
2216
2325
2397
2469
2511
2553
2575
2597
2610
2623
2631
2640
2644
2649
2646
2644
2634
2624
2608
2592
2573
2555
2537
2520
2506
2492
2481
2470
2461
2453
2446
2440
2435
2431
2428
2425
2424
2423
2422
2421
2417
2413
2404
2396
2383
2370
2352
2335
2314
2293
2269
2246
2220
2194
2165
2137
2107
2078
2049
2021
1995
1969
1947
1925
1907
1889
1873
1858
1845
1832
1821
1810
1802
1794
1789
1785
1782
1780
1777
1775
1769
1764
1754
1745
1732
1720
1707
1695
1684
1674
1663
1653
1638
1623
1598
1573
1538
1504
1467
1430
1404
1378
1379
1381
1421
1462
1541
1620
1725
1830
1942
2054
2153
2252
2325
2399
2444
2490
2513
2536
2545
2555
2557
2559
2556
2554
2546
2539
2524
2510
2489
2468
2442
2417
2390
2363
2338
2313
2289
2266
2245
2225
2206
2188
2173
2159
2148
2137
2130
2124
2120
2116
2112
2109
2104
2099
2091
2084
2074
2065
2055
2046
2037
2028
2019
2011
2002
1993
1982
1971
1959
1947
1934
1921
1907
1893
1875
1857
1831
1806
1769
1733
1688
1644
1599
1555
1523
1492
1485
1478
1484
1490
1534
1579
1661
1744
1837
1931
2013
2096
2156
2217
2254
2292
2313
2335
2348
2362
2371
2381
2386
2391
2389
2387
2375
2363
2343
2324
2299
2274
2248
2222
2197
2173
2149
2126
2104
2082
2062
2042
2025
2009
1998
1987
1980
1973
1968
1963
1954
1946
1932
1919
1899
1880
1858
1836
1813
1790
1765
1740
1708
1677
1634
1592
1537
1483
1426
1369
1324
1280
1269
1258
1294
1330
1414
1498
1616
1735
1865
1996
2115
2234
2325
2417
2476
2536
2569
2602
2617
2633
2639
2645
2643
2641
2631
2621
2600
2579
2548
2518
2480
2442
2403
2364
2326
2289
2255
2221
2190
2160
2133
2107
2084
2062
2045
2028
2015
2002
1990
1979
1964
1949
1927
1906
1876
1847
1813
1779
1746
1713
1683
1653
1622
1592
1555
1519
1470
1422
1366
1310
1259
1209
1187
1165
1192
1220
1308
1397
1539
1682
1856
2031
2207
2383
2532
2682
2789
2897
2961
3025
3048
3071
3071
3071
3071
3071
3071
3071
3064
3058
3040
3023
2999
2976
2948
2920
2891
2863
2837
2811
2789
2768
2751
2735
2723
2711
2702
2693
2686
2679
2673
2668
2661
2654
2644
2635
2621
2608
2590
2573
2550
2528
2501
2475
2446
2417
2386
2355
2323
2292
2261
2230
2199
2169
2138
2107
2075
2044
2011
1979
1946
1914
1882
1851
1822
1794
1767
1740
1714
1688
1660
1632
1601
1571
1538
1505
1472
1440
1410
1380
1352
1325
1296
1268
1235
1203
1164
1126
1085
1044
1034
1024
1024
1024
1024
1024
1024
1024
1024
1024
1024
1024
1024
1024
1024
1024
1024
1024
1043
1062
1172
1282
1425
1568
1722
1876
2016
2157
2267
2378
2451
2525
2568
2611
2634
2657
2670
2683
2691
2699
2702
2705
2701
2698
2687
2677
2661
2645
2627
2609
2592
2575
2560
2546
2533
2521
2510
2499
2489
2480
2472
2464
2458
2453
2450
2448
2445
2443
2439
2435
2426
2417
2404
2391
2374
2357
2338
2320
2302
2284
2265
2247
2227
2208
2186
2164
2140
2117
2093
2070
2048
2026
2006
1986
1968
1950
1931
1913
1892
1872
1849
1827
1804
1782
1760
1739
1720
1701
1682
1664
1644
1624
1601
1578
1552
1527
1501
1476
1454
1432
1414
1396
1378
1361
1339
1317
1287
1258
1225
1192
1167
1142
1142
1142
1180
1218
1299
1381
1497
1614
1747
1881
2008
2136
2240
2344
2416
2489
2532
2576
2599
2623
2635
2647
2654
2661
2664
2668
2666
2665
2657
2649
2635
2621
2604
2587
2569
2551
2534
2518
2503
2489
2477
2465
2454
2443
2433
2423
2414
2406
2399
2392
2385
2379
2372
2365
2356
2347
2335
2324
2309
2295
2278
2261
2242
2223
2204
2185
2166
2147
2129
2111
2092
2073
2053
2033
2011
1989
1966
1943
1920
1897
1875
1854
1834
1814
1793
1773
1751
1729
1703
1678
1650
1622
1594
1567
1542
1518
1497
1476
1455
1435
1409
1384
1350
1317
1279
1242
1212
1182
1175
1168
1199
1231
1307
1383
1497
1611
1744
1878
2008
2139
2248
2357
2434
2512
2559
2607
2634
2661
2676
2691
2701
2711
2717
2723
2723
2723
2715
2708
2693
2679
2659
2640
2620
2600
2581
2562
2545
2528
2513
2499
2486
2473
2461
2450
2440
2431
2424
2417
2412
2408
2404
2400
2394
2388
2379
2370
2357
2344
2328
2312
2294
2276
2258
2240
2222
2204
2185
2166
2146
2126
2104
2083
2060
2038
2016
1994
1974
1954
1935
1916
1897
1879
1858
1838
1815
1792
1768
1744
1720
1697
1674
1652
1631
1610
1589
1568
1544
1520
1492
1464
1434
1405
1377
1350
1327
1305
1286
1268
1249
1230
1204
1178
1143
1109
1074
1040
1032
1024
1029
1035
1097
1159
1268
1378
1520
1662
1814
1966
2102
2239
2343
2447
2515
2583
2621
2659
2678
2698
2708
2719
2724
2730
2731
2733
2727
2721
2707
2693
2673
2653
2630
2608
2586
2564
2544
2524
2506
2489
2472
2456
2441
2426
2412
2399
2387
2376
2367
2358
2351
2344
2336
2329
2320
2311
2299
2287
2272
2257
2239
2222
2203
2185
2167
2149
2131
2114
2095
2077
2057
2037
2014
1991
1966
1942
1916
1891
1867
1843
1821
1800
1779
1759
1737
1715
1690
1666
1638
1611
1582
1553
1527
1502
1480
1459
1440
1421
1400
1380
1352
1324
1289
1255
1221
1188
1171
1155
1172
1189
1250
1311
1415
1519
1650
1781
1917
2054
2173
2293
2383
2473
2530
2587
2619
2652
2668
2685
2694
2703
2706
2710
2707
2705
2695
2686
2668
2651
2628
2605
2580
2555
2530
2506
2482
2458
2435
2412
2391
2370
2351
2332
2316
2301
2289
2277
2267
2258
2248
2238
2227
2216
2202
2188
2172
2157
2140
2124
2106
2088
2068
2049
2027
2006
1982
1958
1933
1908
1884
1861
1838
1816
1794
1772
1748
1724
1698
1672
1644
1617
1591
1565
1543
1521
1502
1483
1462
1442
1416
1390
1353
1317
1280
1244
1221
1199
1208
1217
1270
1323
1420
1518
1646
1774
1911
2048
2171
2294
2387
2481
2541
2602
2635
2668
2684
2700
2707
2714
2717
2720
2717
2715
2706
2697
2680
2664
2642
2620
2595
2571
2546
2521
2496
2472
2449
2427
2406
2385
2366
2347
2331
2316
2302
2289
2278
2267
2256
2245
2233
2221
2207
2193
2177
2161
2143
2125
2105
2085
2062
2039
2014
1989
1963
1937
1910
1884
1859
1834
1809
1784
1757
1731
1701
1671
1639
1607
1575
1543
1515
1487
1463
1440
1418
1397
1371
1346
1313
1280
1242
1205
1175
1146
1141
1136
1173
1210
1294
1378
1504
1630
1777
1924
2068
2212
2330
2449
2532
2616
2666
2717
2743
2770
2784
2798
2806
2814
2816
2819
2814
2810
2797
2784
2763
2743
2719
2695
2671
2647
2625
2604
2584
2565
2547
2530
2513
2496
2481
2466
2454
2442
2433
2425
2419
2414
2408
2403
2394
2385
2371
2358
2340
2323
2303
2284
2265
2246
2226
2207
2186
2166
2143
2120
2094
2069
2042
2016
1990
1964
1940
1917
1894
1872
1848
1825
1799
1774
1745
1717
1688
1660
1634
1608
1585
1562
1540
1518
1494
1470
1442
1415
1384
1354
1324
1295
1270
1246
1227
1208
1190
1172
1148
1124
1091
1058
1041
1024
1024
1024
1024
1024
1066
1108
1216
1325
1469
1614
1771
1928
2071
2215
2326
2437
2509
2582
2621
2660
2678
2696
2703
2710
2712
2715
2713
2711
2703
2695
2679
2663
2640
2617
2591
2565
2539
2513
2489
2466
2444
2423
2403
2384
2366
2349
2333
2317
2303
2290
2278
2266
2256
2246
2236
2226
2214
2203
2189
2175
2158
2141
2120
2100
2076
2053
2029
2005
1981
1957
1934
1911
1888
1866
1842
1818
1791
1765
1736
1707
1678
1649
1623
1597
1575
1554
1533
1513
1489
1466
1435
1404
1366
1329
1294
1260
1244
1228
1247
1266
1328
1391
1493
1596
1722
1849
1976
2104
2212
2321
2398
2476
2522
2568
2590
2613
2621
2629
2630
2632
2628
2625
2616
2608
2593
2579
2557
2536
2510
2484
2456
2428
2399
2371
2343
2316
2291
2266
2243
2221
2202
2183
2168
2153
2141
2129
2118
2107
2095
2084
2071
2059
2044
2029
2013
1997
1978
1960
1940
1920
1898
1876
1853
1830
1808
1786
1765
1745
1725
1706
1683
1661
1632
1604
1570
1536
1503
1471
1453
1436
1448
1460
1510
1560
1647
1735
1846
1958
2073
2189
2288
2388
2459
2530
2570
2611
2626
2641
2640
2640
2632
2625
2617
2610
2603
2596
2582
2569
2549
2529
2503
2478
2450
2423
2394
2366
2338
2311
2285
2260
2236
2213
2191
2169
2149
2129
2109
2090
2070
2050
2028
2007
1984
1962
1938
1914
1889
1865
1838
1812
1783
1754
1722
1691
1658
1626
1595
1565
1538
1512
1488
1464
1438
1412
1379
1346
1306
1267
1227
1188
1165
1142
1155
1168
1229
1291
1400
1510
1653
1797
1948
2099
2232
2366
2464
2562
2620
2678
2702
2727
2730
2733
2726
2719
2707
2696
2681
2666
2646
2627
2602
2577
2547
2518
2486
2455
2424
2394
2365
2337
2310
2284
2260
2237
2218
2199
2183
2167
2154
2141
2128
2116
2101
2086
2068
2051
2030
2010
1987
1965
1941
1918
1892
1866
1836
1806
1772
1738
1702
1666
1630
1595
1562
1530
1499
1468
1433
1399
1356
1313
1263
1213
1165
1118
1091
1065
1079
1093
1160
1228
1346
1465
1617
1769
1928
2087
2225
2364
2464
2565
2624
2684
2709
2735
2739
2744
2738
2733
2723
2714
2701
2688
2668
2649
2622
2596
2563
2531
2496
2461
2427
2394
2364
2335
2311
2287
2267
2248
2231
2215
2199
2184
2169
2155
2140
2126
2112
2098
2083
2069
2052
2035
2013
1991
1963
1935
1901
1868
1831
1795
1760
1725
1693
1661
1630
1599
1566
1533
1492
1451
1404
1357
1311
1266
1239
1213
1222
1232
1290
1349
1455
1562
1701
1840
1986
2132
2260
2388
2479
2571
2621
2672
2689
2707
2704
2701
2689
2677
