0
2472
2471
2466
2462
2453
2444
2429
2415
2391
2368
2325
2282
2210
2138
2043
1949
1840
1731
1621
1511
1416
1322
1254
1187
1153
1119
1109
1099
1097
1095
1087
1079
1062
1045
1034
1024
1026
1028
1072
1117
1205
1293
1412
1531
1654
1777
1875
1974
2030
2087
2101
2115
2100
2086
2063
2041
2025
2009
2006
2003
2009
2016
2026
2036
2044
2052
2057
2063
2068
2074
2080
2087
2092
2097
2096
2096
2087
2079
2061
2043
2020
1997
1973
1950
1931
1913
1903
1893
1892
1891
1897
1903
1912
1921
1928
1935
1936
1937
1929
1922
1908
1894
1876
1859
1844
1829
1820
1812
1810
1809
1811
1813
1815
1817
1815
1813
1809
1806
1805
1805
1813
1821
1842
1864
1897
1930
1969
2009
2047
2086
2117
2149
2170
2192
2202
2213
2214
2215
2209
2203
2193
2183
2172
2162
2153
2145
2139
2134
2130
2126
2120
2115
2104
2094
2079
2065
2049
2034
2025
2016
2018
2020
2032
2045
2062
2080
2093
2107
2112
2117
2113
2110
2105
2100
2102
2104
2118
2132
2156
2180
2205
2230
2247
2265
2269
2273
2265
2258
2245
2233
2220
2208
2199
2190
2182
2174
2164
2154
2141
2128
2115
2102
2096
2090
2097
2104
2126
2148
2180
2213
2248
2284
2313
2343
2362
2381
2388
2395
2391
2387
2375
2364
2346
2328
2305
2282
2256
2231
2205
2180
2157
2135
2117
2100
2087
2075
2065
2055
2044
2034
2017
2000
1974
1948
1939
1931
1946
1962
2002
2043
2101
2159
2220
2282
2334
2386
2423
2460
2482
2504
2516
2528
2534
2541
2542
2543
2537
2531
2519
2507
2491
2476
2464
2453
2448
2443
2443
2443
2438
2434
2416
2398
2362
2327
2282
2237
2199
2161
2148
2135
2155
2176
2225
2274
2332
2390
2435
2481
2497
2513
2494
2476
2430
2385
2324
2264
2199
2135
2074
2013
1958
1904
1858
1813
1779
1745
1723
1702
1688
1674
1660
1647
1624
1601
1564
1528
1485
1443
1410
1378
1375
1372
1410
1448
1523
1599
1695
1792
1884
1976
2041
2107
2134
2162
2153
2144
2107
2071
2019
1967
1907
1848
1787
1727
1669
1612
1560
1508
1463
1419
1383
1348
1320
1292
1270
1248
1235
1222
1224
1226
1251
1277
1333
1390
1476
1563
1670
1777
1886
1995
2086
2177
2234
2292
2311
2331
2317
2304
2268
2233
2190
2147
2108
2069
2040
2012
1994
1977
1965
1954
1941
1928
1907
1887
1856
1826
1790
1755
1726
1697
1687
1677
1697
1718
1769
1821
1897
1973
2060
2147
2233
2319
2391
2463
2513
2564
2591
2619
2624
2629
2614
2599
2567
2535
2492
2450
2405
2360
2318
2276
2239
2203
2167
2132
2089
2046
1988
1931
1860
1790
1718
1646
1588
1531
1503
1475
1481
1487
1521
1555
1601
1648
1692
1736
1766
1796
1808
1820
1810
1800
1767
1735
1678
1622
1544
1467
1380
1294
1212
1131
1077
1024
1024
1024
1024
1024
1024
1024
1024
1024
1024
1024
1024
1024
1024
1024
1108
1193
1317
1442
1577
1713
1831
1950
2035
2121
2174
2227
2261
2295
2322
2350
2373
2397
2407
2417
2401
2385
2342
2299
2243
2187
2143
2099
2088
2077
2100
2123
2162
2202
2230
2258
2256
2255
2227
2200
2169
2139
2136
2134
2175
2217
2296
2375
2465
2556
2627
2699
2732
2766
2762
2758
2731
2704
2669
2634
2600
2567
2533
2499
2460
2422
2377
2332
2287
2242
2204
2167
2141
2115
2095
2076
2053
2031
2000
1969
1933
1898
1873
1848
1850
1853
1892
1931
2000
2070
2152
2235
2307
2380
2427
2474
2490
2507
2499
2491
2467
2444
2411
2379
2341
2303
2259
2216
2170
2125
2080
2035
1994
1954
1918
1883
1849
1816
1781
1746
1710
1674
1645
1617
1608
1599
1620
1641
1693
1745
1819
1894
1973
2053
2120
2188
2232
2276
2293
2311
2305
2300
2277
2255
2221
2188
2147
2107
2063
2020
1978
1937
1902
1868
1843
1818
1802
1786
1775
1764
1754
1745
1738
1731
1733
1735
1754
1773
1815
1858
1922
1987
2063
2140
2215
2290
2351
2412
2451
2490
2507
2524
2522
2521
2505
2490
2465
2440
2409
2378
2346
2314
2285
2257
2234
2212
2195
2178
2164
2150
2130
2110
2079
2048
2014
1980
1958
1936
1943
1950
1997
2044
2126
2208
2310
2412
2512
2612
2692
2773
2827
2882
2912
2943
2957
2971
2975
2979
2974
2970
2958
2946
2926
2906
2883
2861
2839
2818
2801
2784
2768
2752
2731
2711
2681
2652
2616
2580
2549
2518
2505
2493
2509
2526
2570
2615
2675
2735
2792
2850
2886
2923
2929
2935
2906
2878
2816
2754
2662
2571
2453
2335
2198
2061
1916
1771
1632
1494
1374
1254
1155
1057
1040
1024
1024
1024
1024
1024
1024
1024
1024
1024
1024
1024
1024
1024
1058
1092
1194
1296
1406
1517
1611
1706
1765
1825
1841
1858
1837
1817
1775
1734
1692
1651
1628
1605
1611
1617
1653
1690
1747
1804
1866
1928
1978
2029
2054
2080
2077
2074
2048
2022
1987
1952
1925
1898
1893
1888
1912
1936
1985
2035
2098
2162
2226
2290
2341
2393
2424
2456
2467
2479
2473
2467
2451
2435
2414
2393
2370
2348
2326
2305
2284
2263
2244
2226
2211
2197
2186
2176
2170
2164
2158
2152
2142
2133
2116
2099
2076
2054
2031
2009
1996
1984
1990
1996
2025
2054
2101
2149
2203
2257
2303
2350
2379
2408
2415
2422
2410
2398
2375
2352
2325
2299
2274
2250
2227
2204
2182
2161
2140
2119
2100
2081
2066
2052
2041
2031
2023
2015
2003
1992
1974
1956
1932
1908
1884
1861
1848
1836
1843
1851
1881
1912
1959
2007
2060
2113
2157
2202
2229
2256
2262
2269
2260
2251
2232
2214
2192
2171
2149
2128
2106
2085
2064
2044
2025
2006
1991
1977
1968
1959
1955
1951
1947
1944
1936
1929
1915
1902
1884
1867
1854
1841
1841
1842
1862
1883
1922
1962
2011
2061
2109
2158
2193
2228
2245
2263
2264
2265
2255
2245
2231
2217
2205
2194
2189
2184
2188
2193
2187
2182
2169
2157
2149
2141
2139
2137
2137
2138
2128
2119
2088
2058
2004
1950
1884
1819
1764
1709
1688
1668
1696
1725
1798
1871
1966
2061
2149
2238
2294
2351
2365
2379
2356
2334
2289
2244
2192
2140
2090
2040
1993
1947
1902
1857
1814
1772
1736
1700
1676
1653
1641
1630
1627
1625
1620
1616
1598
1580
1545
1511
1470
1429
1403
1377
1388
1400
1460
1520
1621
1723
1842
1962
2068
2175
2245
2315
2338
2362
2345
2328
2287
2246
2196
2147
2099
2051
2005
1960
1914
1869
1822
1775
1730
1686
1647
1609
1572
1535
1499
1463
1432
1401
1357
1313
1247
1182
1110
1038
1031
1024
1024
1024
1024
1024
1091
1158
1274
1390
1512
1634
1736
1839
1907
1976
2011
2046
2059
2072
2077
2082
2087
2092
2098
2105
2111
2117
2120
2124
2127
2131
2142
2153
2178
2203
2242
2281
2324
2368
2404
2440
2458
2476
2474
2473
2462
2452
2450
2448
2469
2491
2543
2595
2670
2746
2827
2908
2975
3042
3056
3071
3071
3071
3070
3070
3035
3000
2962
2925
2890
2856
2825
2795
2766
2738
2710
2683
2655
2628
2601
2575
2549
2524
2496
2468
2433
2398
2352
2306
2248
2190
2124
2059
1996
1934
1887
1840
1819
1798
1808
1818
1855
1893
1945
1998
2051
2104
2143
2183
2201
2220
2218
2217
2200
2184
2161
2139
2115
2091
2067
2043
2018
1993
1967
1941
1917
1894
1878
1863
1861
1860
1871
1883
1900
1917
1926
1936
1930
1924
1902
1881
1857
1834
1828
1823
1854
1886
1957
2028
2125
2223
2322
2421
2495
2569
2604
2640
2640
2640
2618
2597
2568
2539
2507
2475
2433
2391
2327
2264
2172
2081
1969
1858
1747
1637
1551
1465
1416
1368
1353
1338
1339
1340
1336
1333
1314
1296
1269
1242
1226
1211
1227
1244
1302
1361
1452
1543
1646
1749
1837
1926
1984
2043
2067
2091
2090
2090
2076
2062
2044
2027
2007
1988
1964
1940
1909
1879
1844
1810
1778
1747
1724
1702
1691
1680
1675
1670
1661
1652
1630
1609
1574
1539
1499
1460
1432
1404
1402
1400
1430
1460
1517
1575
1643
1712
1773
1834
1872
1910
1921
1932
1920
1908
1883
1858
1829
1800
1771
1743
1715
1688
1661
1635
1610
1585
1563
1542
1533
1524
1527
1531
1539
1548
1551
1555
1546
1537
1516
1496
1477
1459
1460
1461
1497
1534
1608
1683
1785
1887
1995
2103
2197
2291
2359
2427
2471
2515
2544
2573
2596
2619
2638
2658
2670
2682
2683
2684
2676
2669
2661
2654
2659
2664
2688
2713
2750
2787
2821
2855
2869
2883
2873
2863
2843
2823
2821
2820
2864
2908
2989
3071
3071
3071
3071
3071
3071
3071
3071
3071
3071
3071
3071
3071
3071
3071
3071
3071
3071
3071
3071
3071
3035
3000
2937
2875
2811
2747
2691
2636
2591
2546
2507
2469
2429
2389
2344
2300
2254
2208
2171
2135
2117
2100
2105
2110
2131
2153
2177
2201
2214
2228
2225
2222
2203
2185
2158
2131
2102
2073
2043
2014
1982
1951
1914
1877
1834
1792
1749
1706
1670
1635
1610
1586
1571
1557
1545
1533
1515
1498
1471
1445
1413
1381
1353
1325
1313
1302
1314
1327
1362
1398
1449
1501
1554
1608
1648
1689
1704
1720
1705
1690
1645
1600
1536
1473
1409
1345
1301
1258
1251
1245
1284
1323
1400
1477
1573
1669
1757
1846
1906
1967
1990
2014
2007
2001
1984
1968
1963
1958
1980
2003
2056
2109
2182
2256
2332
2408
2471
2535
2577
2620
2643
2666
2674
2682
2681
2681
2672
2664
2644
2624
2590
2556
2509
2462
2409
2356
2309
2262
2229
2197
2177
2158
2144
2130
2109
2088
2052
2016
1970
1924
1884
1844
1830
1816
1841
1867
1931
1995
2082
2169
2255
2341
2405
2470
2502
2534
2536
2539
2520
2502
2470
2439
2398
2358
2309
2260
2202
2144
2082
2021
1966
1912
1874
1837
1822
1807
1811
1815
1828
1841
1853
1865
1871
1877
1881
1886
1898
1910
1936
1962
2003
2045
2095
2145
2187
2229
2249
2269
2262
2255
2226
2197
2159
2121
2086
2051
2026
2002
1987
1972
1960
1949
1935
1921
1902
1883
1860
1838
1817
1796
1781
1766
1758
1751
1749
1747
1747
1747
1747
1747
1746
1746
1747
1749
1753
1757
1764
1772
1781
1790
1798
1807
1813
1819
1821
1824
1824
1824
1823
1822
1821
1820
1818
1816
1812
1809
1804
1799
1793
1788
1783
1778
1774
1771
1767
1764
1758
1753
1744
1735
1722
1709
1695
1682
1673
1664
1664
1664
1671
1678
1684
1691
1699
1708
1708
1708
1691
1675
1643
1612
1572
1532
1492
1453
1422
1392
1372
1352
1339
1327
1314
1302
1285
1269
1247
1226
1203
1180
1159
1139
1122
1106
1089
1072
1048
1024
1024
1024
1024
1024
1024
1024
1024
1024
1024
1024
1024
1024
1024
1024
1107
1190
1293
1397
1500
1603
1688
1774
1832
1891
1920
1949
1957
1965
1964
1963
1965
1967
1979
1992
2013
2035
2059
2084
2101
2119
2124
2130
2123
2116
2105
2095
2092
2089
2103
2117
2152
2187
2237
2288
2345
2403
2457
2511
2554
2598
2630
2663
2686
2709
2726
2744
2756
2769
2776
2783
2783
2783
2776
2769
2757
2746
2733
2720
2708
2696
2684
2672
2655
2639
2615
2592
2562
2532
2500
2469
2445
2422
2413
2404
2411
2419
2438
2458
2480
2502
2516
2530
2531
2532
2519
2507
2485
2463
2437
2412
2385
2359
2332
2306
2278
2250
2222
2194
2168
2142
2122
2103
2091
2079
2072
2066
2059
2052
2039
2027
2006
1986
1962
1938
1919
1900
1896
1893
1909
1925
1959
1994
2037
2081
2121
2162
2190
2218
2230
2242
2239
2237
2225
2213
2195
2178
2156
2135
2109
2084
2055
2026
1995
1964
1935
1907
1883
1860
1843
1826
1812
1799
1784
1770
1750
1731
1708
1685
1663
1642
1630
1619
1624
1630
1653
1676
1711
1747
1785
1824
1856
1888
1908
1929
1938
1947
1949
1951
1950
1950
1950
1950
1951
1952
1953
1955
1958
1961
1967
1973
1984
1995
2012
2029
2052
2076
2099
2123
2141
2160
2171
2182
2192
2202
2219
2237
2272
2307
2363
2419
2491
2563
2638
2714
2779
2845
2890
2935
2956
2978
2978
2979
2963
2947
2917
2888
2845
2802
2745
2689
2622
2555
2485
2416
2353
2291
2243
2196
2162
2128
2100
2072
2038
2004
1956
1909
1851
1793
1736
1680
1643
1607
1605
1603
1638
1673
1736
1800
1876
1953
2025
2098
2157
2216
2259
2302
2330
2359
2375
2391
2393
2395
2381
2367
2336
2305
2263
2221
2178
2136
2103
2071
2053
2035
2027
2020
2013
2006
1990
1974
1947
1921
1891
1861
1841
1822
1824
1827
1855
1884
1930
1977
2026
2076
2114
2153
2171
2190
2189
2189
2176
2163
2144
2125
2104
2084
2062
2040
2015
1990
1964
1938
1913
1889
1871
1854
1845
1837
1833
1830
1826
1822
1811
1800
1782
1765
1747
1730
1724
1718
1733
1749
1789
1830
1888
1946
2009
2072
2124
2177
2210
2244
2257
2270
2266
2263
2251
2239
2223
2207
2188
2169
2146
2123
2095
2067
2037
2007
1979
1952
1930
1908
1892
1877
1863
1850
1833
1816
1792
1769
1742
1716
1695
1674
1670
1666
1685
1705
1746
1788
1842
1897
1951
2005
2047
2089
2112
2136
2142
2149
2144
2140
2130
2120
2107
2094
2079
2065
2048
2031
2013
1996
1981
1967
1958
1949
1945
1942
1940
1938
1929
1920
1899
1878
1842
1807
1756
1706
1639
1573
1534
1495
1522
1549
1623
1698
1794
1891
1983
2075
2143
2212
2253
2295
2314
2334
2340
2346
2343
2340
2325
2310
2284
2258
2208
2159
2094
2030
1960
1891
1826
1761
1701
1642
1581
1521
1451
1382
1304
1227
1156
1086
1055
1024
1029
1034
1106
1179
1303
1428
1580
1733
1886
2040
2174
2309
2414
2520
2598
2676
2730
2784
2814
2845
2847
2850
2822
2794
2740
2686
2620
2555
2496
2438
2401
2365
2354
2344
2349
2354
2359
2364
2360
2356
2346
2337
2339
2342
2376
2410
2485
2560
2666
2773
2885
2998
3034
3071
3071
3071
3071
3071
3071
3071
3037
3003
2963
2923
2885
2847
2801
2755
2693
2631
2552
2474
2388
2302
2221
2141
2075
2010
1962
1914
1877
1840
1809
1778
1753
1729
1718
1708
1721
1735
1777
1820
1885
1951
2024
2097
2157
2218
2251
2285
2288
2292
2272
2253
2220
2187
2150
2114
2075
2037
1995
1953
1905
1857
1806
1755
1705
1656
1615
1574
1542
1510
1484
1458
1431
1405
1373
1342
1307
1272
1241
1211
1194
1178
1183
1189
1219
1249
1298
1347
1407
1468
1531
1594
1655
1716
1772
1828
1877
1926
1967
2008
2036
2065
2080
2096
2100
2104
2102
2101
2102
2104
2115
2126
2149
2172
2203
2234
2266
2298
2324
2350
2366
2382
2391
2400
2407
2414
2427
2440
2462
2484
2514
2544
2576
2608
2634
2661
2676
2691
2692
2694
2681
2669
2645
2622
2589
2557
2516
2476
2429
2382
2332
2282
2233
2185
2141
2097
2061
2025
1996
1967
1941
1915
1888
1861
1833
1805
1780
1755
1740
1726
1730
1734
1760
1787
1831
1876
1930
1984
2036
2088
2129
2171
2200
2230
2249
2269
2281
2294
2302
2310
2310
2310
2299
2288
2262
2236
2196
2157
2110
2063
2015
1967
1924
1881
1842
1804
1768
1732
1696
1660
1627
1595
1572
1549
1545
1541
1562
1583
1628
1673
1735
1797
1862
1927
1983
2040
2081
2123
2150
2177
2195
2214
2230
2246
2261
2277
2290
2304
2312
2321
2324
2327
2328
2329
2333
2337
2349
2362
2383
2404
2429
2454
2475
2496
2508
2520
2523
2527
2529
2532
2544
2556
2583
2611
2655
2700
2754
2808
2861
2914
2957
3000
3026
3052
3059
3066
3053
3041
3005
2970
2906
2842
2748
2654
2534
2415
2281
2147
2016
1885
1771
1657
1566
1476
1405
1335
1276
1218
1166
1114
1071
1028
1026
1024
1024
1024
1060
1096
1170
1245
1333
1421
1503
1585
1646
1707
1742
1778
1793
1808
1810
1813
1809
1805
1795
1786
1768
1751
1725
1700
1670
1640
1613
1587
1572
1557
1556
1555
1563
1572
1580
1589
1590
1592
1587
1583
1582
1581
1597
1614
1657
1701
1771
1841
1925
2010
2091
2173
2236
2300
2338
2377
2393
2409
2410
2412
2407
2402
2393
2384
2370
2356
2334
2313
2285
2258
2230
2203
2184
2166
2160
2155
2159
2164
2169
2174
2168
2163
2141
2120
2086
2053
2020
1988
1971
1954
1961
1969
1998
2028
2068
2109
2145
2181
2202
2223
2226
2229
2219
2210
2196
2182
2168
2154
2138
2123
2101
2080
2048
2016
1974
1933
1889
1846
1808
1770
1743
1716
1698
1681
1665
1649
1626
1604
1574
1544
1513
1483
1465
1447
1453
1460
1496
1532
1591
1651
1719
1787
1849
1911
1956
2001
2026
2052
2063
2074
2076
2079
2078
2077
2071
2066
2055
2044
2027
2010
1990
1970
1951
1933
1920
1907
1897
1888
1878
1868
1852
1837
1815
1794
1774
1754
1747
1740
1757
1774
1819
1865
1933
2001
2078
2156
2227
2299
2354
2410
2447
2484
2505
2526
2534
2543
2539
2536
2520
2505
2484
2463
2444
2425
2373
2321
2268
2215
2176
2138
2117
2096
2084
2072
2054
2037
2006
1975
1936
1897
1869
1841
1849
1857
1917
1977
2087
2198
2338
2478
2615
2753
2858
2963
3017
3071
3071
3071
3066
3061
3042
3023
3012
3001
2996
2992
2984
2976
2952
2928
2885
2843
2790
2738
2690
2643
2615
2587
2584
2581
2595
2610
2625
2641
2645
2650
2640
2630
2618
2606
2610
2615
2651
2687
2754
2821
2902
2984
3027
3071
3071
3071
3071
3071
3011
2951
2852
2753
2641
2530
2414
2299
2180
2061
1936
1812
1683
1555
1432
1309
1205
1102
1063
1024
1024
1024
1024
1024
1024
1024
1024
1024
1024
1024
1024
1024
1024
1024
1053
1082
1188
1294
1420
1546
1666
1787
1880
1974
2031
2088
2112
2136
2139
2142
2136
2130
2122
2114
2104
2094
2078
2062
2039
2016
1989
1963
1940
1918
1904
1891
1886
1881
1879
1878
1869
1861
1841
1822
1795
1768
1745
1722
1719
1717
1746
1776
1838
1901
1986
2071
2160
2249
2323
2398
2444
2491
2507
2524
2516
2508
2484
2460
2428
2397
2362
2327
2287
2248
2204
2160
2111
2062
2013
1964
1921
1878
1845
1813
1792
1771
1755
1740
1721
1702
1673
1644
1604
1564
1522
1480
1452
1424
1424
1425
1464
1503
1575
1648
1739
1831
1919
2007
2074
2141
2177
2214
2222
2230
2220
2211
2194
2178
2161
2145
2129
2113
2093
2073
2046
2020
1989
1959
1929
1899
1877
1855
1841
1828
1818
1809
1795
1782
1757
1732
1697
1662
1627
1593
1575
1557
1571
1585
1636
1688
1768
1849
1940
2031
2112
2193
2249
2305
2332
2359
2364
2369
2361
2353
2340
2327
2312
2298
2278
2259
2233
2207
2174
2142
2109
2076
2048
2021
2001
1982
1967
1953
1935
1918
1890
1863
1825
1788
1748
1709
1684
1660
1664
1669
1711
1754
1828
1903
1994
2086
2173
2261
2329
2398
2460
2522
2560
2599
2603
2608
2596
2584
2564
2544
2517
2491
2454
2418
2369
2321
2263
2206
2150
2094
2048
2003
1972
1942
1921
1901
1878
1855
1817
1779
1722
1666
1601
1536
1483
1431
1417
1403
1445
1487
1586
1686
1826
1966
2118
2271
2406
2541
2637
2734
2785
2836
2847
2858
2841
2825
2794
2763
2727
2691
2652
2613
2569
2526
2476
2427
2371
2316
2259
2203
2152
2101
2061
2022
1994
1966
1943
1920
1891
1862
1816
1771
1707
1644
1573
1502
1446
1391
1376
1361
1403
1446
1549
1652
1796
1941
2106
2271
2422
2574
2685
2797
2858
2920
2936
2952
2938
2925
2895
2866
2831
2797
2758
2720
2676
2633
2583
2534
2479
2425
2371
2317
2270
2223
2188
2153
2128
2104
2083
2063
2037
2011
1970
1929
1870
1812
1745
1679
1625
1572
1557
1543
1588
1634
1747
1860
2025
2191
2379
2567
2740
2914
2992
3071
3071
3071
3071
3071
3071
3071
3026
2982
2915
2849
2776
2704
2622
2540
2448
2357
2261
2166
2077
1988
1916
1845
1795
1746
1712
1679
1646
1614
1567
1521
1453
1386
1305
1225
1153
1081
1052
1024
1043
1062
1146
1230
1357
1485
1623
1762
1879
1997
2071
2145
2171
2198
2186
2175
2142
2110
2070
2031
1989
1948
1906
1865
1822
1780
1741
1702
1673
1645
1632
1619
1620
1621
1625
1629
1623
1617
1592
1568
1530
1493
1462
1431
1432
1433
1485
1537
1642
1748
1888
2028
2173
2318
2438
2559
2637
2716
2750
2784
2784
2785
2765
2745
2713
2681
2638
2595
2540
2486
2422
2359
2293
2228
2172
2116
2077
2038
2014
1990
1968
1946
1912
1878
1825
1773
1711
1649
1600
1551
1544
1537
1591
1645
1758
1872
2022
2172
2322
2472
2589
2707
2773
2840
2856
2873
2854
2836
2798
2761
2713
2665
2605
2546
2469
2393
2299
2206
2104
2003
1910
1817
1748
1679
1638
1597
1571
1546
1516
1486
1435
1385
1313
1242
1168
1095
1059
1024
1035
1046
1129
1212
1345
1479
1629
1780
1910
2041
2127
2214
2252
2291
2293
2296
2281
2266
2245
2225
2202
2179
2148
2117
2073
2030
1978
1926
1877
1828
1793
1759
1744
1730
1727
1725
1719
1714
1691
1669
1627
1586
1539
1493
1467
1441
1458
1476
1548
1621
1737
1854
1990
2126
2251
2376
2469
2562
2616
2670
2692
2715
2718
2721
2714
2707
2691
2675
2647
2620
2577
2535
2482
2430
2377
2324
2281
2238
2209
2181
2160
2140
2115
2090
2049
2009
1954
1899
1845
1792
1764
1736
1755
1775
1848
1922
2037
2152
2280
2409
2520
2631
2705
2779
2812
2845
2846
2848
2831
2814
2786
2759
2721
2683
2629
2576
2505
2434
2351
2269
2189
2110
2045
1981
1935
1890
1854
1818
1776
1734
1675
1616
1542
1469
1401
1333
1299
1266
1289
1312
1396
1481
1607
1733
1868
2004
2114
2225
2290
2356
2376
2397
2386
2376
2350
2324
2292
2261
2221
2181
2126
2072
2000
1928
1846
1764
1687
1611
1555
1500
1471
1442
1429
1417
1400
1384
1345
1306
1241
1176
1101
1027
1025
1024
1024
1024
1053
1083
1201
1319
1463
1608
1747
1886
1992
2098
2160
2222
2244
2266
2259
2253
2231
2209
2179
2150
2114
2079
2039
2000
1960
1920
1888
1856
1839
1822
1822
1823
1832
1842
1846
1850
1830
1811
1759
1707
1626
1546
1454
1363
1284
1205
1160
1116
1116
1116
1158
1200
1271
1342
1426
1510
1594
1678
1756
1835
1909
1983
2055
2127
2197
2268
2333
2398
2450
2502
2532
2563
2568
2574
2554
2534
2495
2457
2407
2358
