0
1519
1580
1641
1774
1907
2090
2274
2465
2656
2810
2964
3017
3071
3071
3071
3030
2990
2897
2804
2705
2607
2519
2432
2356
2280
2211
2142
2073
2005
1939
1874
1818
1762
1726
1691
1677
1663
1664
1666
1665
1664
1645
1626
1583
1540
1484
1429
1387
1345
1347
1349
1414
1479
1605
1731
1891
2052
2208
2364
2475
2587
2633
2680
2661
2643
2580
2517
2435
2354
2274
2194
2122
2050
1983
1917
1849
1782
1716
1651
1595
1539
1505
1471
1462
1454
1464
1475
1484
1493
1484
1475
1441
1408
1365
1322
1299
1277
1308
1340
1442
1544
1708
1873
2065
2258
2433
2609
2728
2847
2892
2937
2916
2895
2833
2772
2697
2623
2554
2485
2425
2366
2308
2251
2189
2127
2063
1999
1941
1884
1848
1813
1804
1795
1806
1818
1829
1840
1831
1823
1784
1746
1690
1635
1591
1548
1552
1556
1630
1704
1846
1989
2171
2354
2532
2710
2840
2970
3020
3071
3060
3050
2985
2920
2833
2746
2660
2575
2498
2422
2352
2282
2211
2140
2067
1994
1926
1858
1807
1756
1730
1704
1702
1701
1708
1716
1713
1711
1684
1658
1608
1559
1505
1451
1424
1398
1423
1449
1538
1627
1764
1902
2055
2208
2335
2463
2535
2608
2616
2625
2581
2538
2466
2395
2319
2244
2175
2107
2046
1986
1928
1870
1812
1754
1701
1648
1611
1575
1561
1547
1554
1562
1575
1588
1588
1589
1564
1540
1497
1455
1418
1382
1383
1385
1447
1510
1636
1762
1926
2090
2252
2415
2536
2657
2714
2772
2766
2760
2712
2665
2601
2538
2480
2422
2374
2326
2283
2241
2195
2150
2100
2051
2003
1956
1924
1892
1882
1872
1880
1888
1898
1908
1901
1895
1862
1830
1779
1729
1686
1643
1639
1635
1692
1750
1869
1988
2144
2300
2454
2608
2720
2832
2882
2933
2921
2909
2855
2801
2730
2660
2591
2523
2462
2402
2344
2287
2227
2168
2106
2044
1989
1934
1898
1862
1850
1839
1847
1856
1865
1875
1868
1862
1828
1794
1741
1688
1639
1591
1577
1564
1606
1649
1749
1849
1984
2119
2253
2388
2486
2584
2625
2666
2649
2633
2577
2522
2449
2376
2306
2236
2175
2114
2059
2004
1947
1891
1835
1779
1728
1678
1645
1612
1601
1591
1600
1610
1622
1634
1631
1629
1600
1572
1527
1482
1445
1408
1410
1412
1475
1539
1664
1790
1951
2112
2269
2427
2539
2652
2700
2748
2733
2718
2662
2607
2535
2464
2397
2330
2270
2210
2153
2097
2037
1978
1917
1857
1807
1757
1728
1700
1697
1694
1706
1719
1725
1732
1715
1699
1655
1612
1561
1510
1482
1455
1485
1515
1613
1711
1864
2017
2185
2354
2494
2634
2711
2789
2797
2805
2757
2709
2635
2562
2487
2412
2348
2284
2228
2172
2116
2060
1998
1936
1875
1815
1768
1721
1699
1677
1679
1681
1693
1706
1706
1707
1682
1658
1609
1561
1511
1462
1445
1429
1473
1518
1631
1745
1908
2071
2243
2416
2554
2692
2765
2838
2842
2846
2796
2747
2673
2599
2523
2447
2382
2317
2260
2204
2145
2086
2020
1955
1893
1831
1785
1739
1721
1704
1711
1719
1734
1750
1750
1750
1718
1687
1630
1573
1518
1464
1449
1435
1492
1549
1683
1817
2003
2189
2379
2570
2718
2866
2938
3011
3007
3004
2945
2886
2804
2722
2640
2559
2488
2417
2352
2287
2220
2154
2084
2015
1952
1890
1848
1806
1793
1781
1791
1802
1817
1832
1828
1824
1791
1758
1705
1652
1609
1567
1570
1573
1649
1725
1870
2016
2203
2390
2571
2752
2882
3013
3042
3071
3066
3062
2989
2916
2824
2733
2646
2559
2484
2409
2340
2272
2203
2135
2064
1993
1928
1864
1817
1770
1750
1731
1732
1733
1739
1746
1736
1726
1690
1655
1601
1548
1503
1458
1455
1452
1515
1578
1706
1834
2000
2166
2326
2486
2599
2713
2755
2798
2773
2749
2678
2607
2519
2431
2345
2259
2182
2105
2031
1957
1883
1809
1735
1662
1602
1542
1507
1472
1466
1460
1472
1484
1493
1503
1491
1479
1443
1408
1367
1326
1314
1302
1348
1394
1512
1631
1802
1974
2160
2346
2498
2651
2737
2824
2836
2848
2803
2759
2685
2612
2536
2461
2393
2326
2264
2203
2139
2075
2008
1941
1877
1814
1769
1724
1705
1687
1691
1695
1703
1712
1704
1697
1662
1628
1577
1527
1489
1451
1462
1473
1554
1636
1785
1934
2117
2301
2473
2646
2764
2882
2925
2968
2942
2917
2848
2780
2698
2616
2539
2462
2393
2324
2258
2192
2120
2049
1977
1905
1844
1783
1748
1713
1706
1699
1711
1724
1732
1740
1724
1708
1662
1616
1557
1498
1457
1417
1430
1444
1527
1611
1755
1899
2067
2236
2384
2533
2623
2714
2734
2755
2716
2677
2606
2536
2459
2382
2312
2243
2180
2117
2053
1990
1921
1852
1784
1717
1663
1610
1583
1557
1556
1555
1566
1578
1578
1579
1556
1533
1490
1447
1409
1372
1374
1377
1445
1513
1646
1780
1951
2122
2285
2449
2564
2680
2724
2769
2750
2731
2672
2613
2542
2472
2406
2340
2281
2222
2162
2102
2037
1972
1906
1840
1788
1736
1708
1680
1678
1676
1683
1691
1688
1685
1655
1626
1577
1529
1486
1444
1444
1445
1515
1585
1724
1864
2043
2223
2396
2570
2692
2815
2864
2914
2895
2876
2815
2754
2681
2609
2544
2479
2424
2369
2315
2261
2199
2138
2072
2006
1946
1887
1852
1817
1810
1804
1818
1832
1843
1855
1843
1831
1789
1748
1693
1638
1603
1569
1590
1612
1705
1799
1954
2109
2287
2466
2622
2779
2874
2970
2992
3014
2974
2935
2863
2791
2715
2639
2574
2509
2454
2399
2343
2288
2223
2159
2088
2018
1952
1886
1841
1796
1776
1756
1754
1752
1748
1744
1720
1696
1645
1595
1534
1474
1431
1388
1396
1405
1478
1552
1682
1812
1964
2116
2249
2382
2461
2540
2554
2569
2528
2487
2416
2346
2267
2189
2116
2044
1977
1910
1845
1781
1718
1656
1605
1554
1525
1496
1495
1494
1511
1528
1543
1559
1552
1546
1511
1477
1429
1382
1355
1329
1356
1384
1482
1581
1736
1891
2064
2237
2379
2522
2600
2679
2685
2691
2645
2600
2533
2467
2407
2347
2301
2256
2220
2184
2144
2104
2056
2008
1958
1909
1875
1842
1834
1827
1843
1859
1879
1899
1899
1899
1865
1831
1774
1717
1666
1615
1609
1604
1668
1733
1867
2001
2172
2343
2505
2668
2778
2888
2926
2964
2937
2910
2844
2779
2703
2628
2560
2492
2432
2372
2312
2252
2184
2117
2046
1975
1914
1854
1819
1785
1779
1774
1787
1800
1807
1815
1798
1781
1734
1688
1633
1579
1550
1521
1552
1584
1688
1793
1955
2117
2295
2474
2621
2768
2849
2931
2939
2948
2899
2851
2776
2701
2624
2548
2481
2415
2354
2294
2232
2170
2103
2036
1973
1910
1864
1819
1802
1785
1791
1798
1810
1823
1818
1814
1781
1749
1696
1644
1601
1559
1561
1564
1636
1708
1844
1981
2153
2326
2486
2647
2755
2863
2898
2933
2901
2870
2797
2725
2640
2556
2476
2397
2327
2257
2189
2122
2052
1982
1912
1843
1786
1729
1697
1666
1663
1660
1672
1684
1690
1697
1678
1660
1614
1569
1515
1461
1434
1408
1439
1470
1572
1675
1830
1985
2153
2322
2456
2591
2659
2728
2723
2718
2659
2600
2516
2433
2350
2267
2194
2122
2055
1989
1919
1850
1778
1706
1640
1574
1531
1489
1476
1463
1475
1487
1499
1512
1503
1494
1451
1408
1348
1288
1246
1204
1220
1237
1332
1428
1593
1759
1952
2145
2313
2482
2583
2685
2706
2727
2683
2640
2565
2491
2414
2337
2273
2209
2151
2094
2036
1978
1913
1848
1786
1725
1681
1638
1624
1611
1623
1635
1653
1672
1671
1671
1640
1610
1559
1509
1473
1437
1452
1467
1556
1646
1802
1958
2144
2331
2496
2661
2764
2868
2892
2916
2875
2834
2758
2682
2603
2524
2455
2386
2327
2269
2208
2147
2078
2010
1938
1867
1808
1750
1718
1687
1686
1685
1697
1709
1710
1711
1680
1649
1589
1529
1465
1402
1377
1352
1401
1450
1585
1720
1917
2114
2326
2539
2713
2888
2979
3071
3071
3071
3046
3021
2947
2874
2799
2724
2656
2588
2525
2462
2394
2327
2255
2183
2115
2047
1997
1948
1925
1902
1902
1903
1908
1913
1902
1891
1850
1810
1748
1687
1630
1574
1559
1545
1596
1648
1769
1890
2054
2219
2386
2553
2677
2802
2860
2919
2909
2899
2841
2784
2705
2627
2551
2476
2411
2346
2289
2233
2176
2120
2062
2004
1951
1898
1861
1824
1810
1796
1802
1808
1818
1828
1823
1818
1786
1754
1702
1650
1600
1551
1537
1524
1571
1619
1733
1847
2006
2165
2331
2498
2628
2759
2827
2896
2896
2896
2844
2792
2714
2637
2558
2479
2410
2341
2281
2222
2164
2107
2049
1991
1935
1880
1838
1796
1774
1752
1750
1748
1751
1755
1748
1741
1708
1675
1621
1567
1512
1457
1434
1411
1446
1481
1583
1686
1836
1986
2147
2309
2437
2566
2633
2700
2697
2695
2640
2585
2503
2422
2340
2258
2185
2112
2048
1985
1922
1859
1794
1730
1669
1609
1566
1523
1504
1486
1491
1497
1510
1524
1526
1529
1508
1488
1452
1417
1390
1363
1379
1396
1477
1558
1704
1851
2034
2217
2393
2569
2694
2820
2873
2927
2910
2894
2833
2773
2696
2620
2549
2478
2417
2356
2298
2240
2175
2111
2041
1971
1906
1841
1796
1751
1733
1715
1717
1720
1721
1722
1703
1684
1638
1592
1537
1482
1450
1419
1447
1475
1578
1682
1851
2021
2217
2413
2589
2765
2880
2996
3033
3071
3046
3022
2956
2890
2808
2727
2645
2563
2479
2396
2307
2219
2122
2026
1931
1836
1756
1676
1625
1574
1556
1539
1546
1553
1564
1575
1571
1567
1536
1506
1458
1411
1367
1324
1315
1307
1354
1402
1509
1617
1765
1914
2071
2229
2358
2488
2566
2644
2662
2681
2653
2625
2570
2515
2454
2393
2333
2274
2217
2160
2100
2040
1978
1916
1858
1800
1758
1716
1696
1676
1675
1674
1676
1679
1667
1656
1618
1581
1527
1474
1429
1385
1384
1384
1450
1516
1650
1784
1957
2131
2302
2473
2597
2722
2778
2835
2825
2815
2761
2707
2636
2566
2498
2431
2369
2308
2247
2187
2118
2049
1974
1899
1828
1758
1709
1661
1641
1622
1627
1633
1642
1652
1646
1640
1605
1570
1517
1465
1421
1378
1378
1379
1447
1516
1651
1787
1962
2138
2310
2483
2610
2738
2798
2858
2850
2842
2788
2735
2661
2587
2515
2443
2377
2312
2250
2188
2121
2055
1983
1912
1843
1774
1722
1670
1642
1614
1607
1601
1601
1601
1587
1574
1535
1497
1440
1383
1330
1278
1264
1250
1301
1352
1474
1596
1767
1939
2121
2304
2452
2600
2686
2772
2788
2804
2768
2732
2670
2608
2543
2479
2426
2374
2320
2267
2206
2145
2074
2003
1930
1857
1799
1741
1710
1680
1678
1677
1686
1696
1695
1695
1665
1636
1582
1528
1473
1419
1403
1388
1440
1492
1618
1745
1921
2097
2277
2458
2594
2730
2793
2857
2844
2832
2766
2700
2611
2523
2440
2357
2286
2216
2156
2096
2035
1974
1911
1848
1788
1729
1689
1649
1637
1625
1638
1652
1674
1696
1704
1713
1692
1672
1630
1588
1549
1511
1515
1520
1596
1673
1829
1985
2195
2405
2625
2846
2958
3071
3071
3071
3071
3071
3071
3071
3005
2939
2860
2782
2711
2640
2575
2510
2444
2378
2307
2237
2166
2096
2037
1978
1940
1903
1889
1875
1875
1875
1872
1870
1849
1828
1787
1747
1698
1650
1619
1588
1598
1609
1673
1738
1848
1958
2087
2217
2331
2446
2517
2589
2606
2623
2592
2561
2501
2441
2374
2307
2245
2183
2129
2076
2026
1976
1928
1881
1840
1799
1774
1749
1749
1750
1777
1805
1848
1891
1932
1973
1994
2015
2011
2007
1988
1970
1962
1954
1980
2006
2079
2152
2262
2373
2494
2616
2712
2808
2852
2896
2879
2863
2798
2734
2647
2560
2477
2394
2328
2262
2214
2166
2123
2081
2034
1988
1934
1880
1828
1776
1736
1697
1679
1662
1661
1660
1663
1666
1654
1643
1610
1578
1532
1486
1451
1417
1422
1427
1491
1555
1674
1793
1944
2095
2239
2384
2488
2592
2635
2679
2665
2652
2601
2550
2485
2420
2359
2298
2246
2195
2146
2097
2044
1991
1930
1870
1809
1749
1699
1649
1620
1591
1580
1570
1568
1566
1554
1542
1508
1475
1422
1370
1316
1263
1236
1210
1235
1261
1347
1434
1569
1704
1856
2009
2142
2276
2359
2443
2466
2489
2459
2430
2369
2309
2239
2170
2107
2045
1991
1937
1892
1848
1808
1769
1737
1706
1689
1672
1676
1681
1706
1732
1769
1806
1836
1866
1875
1885
1869
1853
1826
1799
1786
1773
1802
1832
1918
2004
2141
2278
2438
2598
2745
2892
2981
3071
3071
3071
3071
3071
3013
2955
2879
2803
2730
2658
2592
2527
2465
2403
2338
2274
2208
2142
2081
2020
1974
1929
1903
1878
1869
1861
1853
1846
1826
1807
1765
1724
1669
1615
1568
1521
1511
1502
1549
1597
1703
1809
1953
2097
2244
2392
2505
2619
2675
2732
2729
2726
2679
2632
2564
2496
2428
2361
2301
2242
2188
2135
2079
2024
1965
1906
1847
1788
1741
1694
1667
1640
1635
1631
1637
1643
1644
1646
1629
1613
1579
1546
1509
1473
1460
1448
1481
1515
1604
1694
1827
1961
2111
2261
2392
2524
2610
2696
2726
2757
2740
2724
2679
2634
2581
2529
2479
2429
2383
2338
2290
2243
2189
2135
2076
2018
1965
1912
1874
1837
1822
1808
1809
1811
1816
1821
1812
1803
1775
1747
1704
1662
1628
1595
1594
1593
1644
1696
1798
1901
2037
2173
2309
2446
2550
2655
2708
2761
2761
2761
2721
2682
2624
2566
2507
2448
2395
2343
2295
2247
2198
2150
2098
2046
1996
1946
1905
1865
1843
1821
1817
1813
1818
1823
1821
1819
1799
1779
1740
1702
1658
1614
1588
1562
1578
1594
1662
1730
1844
1959
2094
2229
2353
2477
2560
2644
2674
2705
2685
2666
2614
2563
2502
2441
2387
2334
2273
2213
2151
2090
2023
1956
1885
1815
1749
1684
1636
1588
1563
1539
1536
1534
1537
1540
1530
1521
1485
1450
1394
1339
1286
1233
1215
1198
1242
1287
1402
1518
1684
1851
2032
2213
2363
2513
2602
2691
2709
2728
2691
2654
2588
2522
2451
2381
2318
2255
2198
2142
2084
2027
1966
1905
1845
1786
1741
1697
1675
1654
1656
1658
1667
1676
1672
1669
1638
1607
1555
1503
1454
1405
1396
1387
1446
1505
1638
1772
1957
2143
2338
2533
2690
2848
2937
3026
3039
3052
3009
2966
2893
2821
2745
2670
2601
2533
2470
2407
2340
2274
2201
2129
2055
1982
1922
1862
1826
1791
1782
1773
1777
1781
1778
1776
1749
1722
1669
1616
1555
1495
1459
1423
1443
1463
1555
1648
1801
1955
2137
2320
2487
2654
2768
2882
2924
2967
2945
2923
2857
2792
2711
2630
2550
2471
2399
2328
2259
2190
2119
2049
1976
1904
1839
1775
1729
1683
1663
1643
1643
1643
1647
1651
1639
1627
1590
1553
1497
1441
1392
1343
1333
1324
1379
1434
1557
1681
1852
2023
2201
2379
2523
2667
2747
2828
2841
2854
2814
2775
2710
2645
2576
2508
2446
2384
2326
2268
2208
2149
2083
2017
1954
1891
1841
1792
1766
1741
1737
1734
1738
1743
1736
1729
1699
1669
1620
1571
1528
1485
1479
1473
1530
1588
1712
1836
2006
2177
2352
2527
2665
2804
2877
2951
2957
2963
2915
2868
2795
2722
2644
2567
2494
2422
2353
2284
2212
2141
2067
1993
1924
1856
1804
1753
1729
1705
1704
1703
1712
1721
1718
1716
1690
1665
1620
1575
1534
1494
1487
1481
1536
1591
1712
1833
2001
2170
2346
2523
2667
2811
2892
2974
2986
2999
2956
2913
2840
2768
2687
2607
2531
2456
2384
2313
2241
2170
2094
2019
1947
1875
1815
1756
1721
1686
1673
1661
1660
1660
1652
1644
1616
1589
1542
1496
1451
1406
1391
1377
1420
1464
1572
1680
1836
1993
2160
2327
2463
2600
2675
2750
2757
2765
2717
2669
2592
2516
2433
2350
2272
2194
2120
2047
1974
1901
1827
1753
1687
1621
1573
1525
1503
1481
1479
1478
1482
1486
1476
1466
1435
1404
1361
1318
1293
1268
1290
1313
1405
1498
1652
1807
1994
2181
2354
2528
2649
2771
2819
2868
2852
2837
2778
2719
2645
2571
2498
2425
2356
2287
2216
2146
2071
1997
1922
1848
1788
1728
1692
1657
1648
1640
1644
1649
1646
1643
1616
1590
1543
1496
1450
1404
1396
1388
1446
1504
1637
1770
1955
2141
2335
2530
2686
2842
2928
3015
3025
3036
2991
2946
2872
2798
2720
2643
2570
2498
2427
2356
2278
2201
2117
2034
1952
1871
1809
1747
1713
1680
1673
1667
1669
1672
1662
1653
1618
1583
1529
1476
1429
1382
1377
1372
1433
1495
1624
1753
1921
2090
2256
2422
2541
2661
2712
2764
2748
2732
2672
2612
2533
2455
2378
2301
2229
2158
2087
2016
1941
1866
1791
1717
1654
1592
1556
1520
1512
1505
1515
1526
1531
1536
1518
1500
1456
1413
1367
1321
1305
1290
1338
1386
1505
1625
1797
1969
2149
2330
2474
2618
2694
2771
2778
2785
2742
2699
2634
2570
2503
2437
2376
2315
2252
2190
2121
2053
1980
1907
1844
1781
1741
1701
1690
1679
1684
1690
1692
1694
1671
1649
1602
1555
1503
1451
1430
1410
1453
1496
1613
1730
1899
2069
2248
2427
2568
2709
2782
2855
2856
2857
2807
2758
2687
2617
2549
2482
2423
2365
2309
2254
2191
2128
2059
1990
1924
1858
1813
1768
1750
1733
1738
1744
1750
1756
1742
1729
1686
1644
1588
1532
1493
1455
1471
1487
1575
1663
1813
1964
2139
2315
2470
2625
2721
2818
2844
2870
2838
2806
2745
2685
2619
2554
2497
2440
2387
2335
2278
2221
2156
2091
2023
1956
1900
1845
1816
1787
1784
1781
1788
1795
1787
1780
1745
1710
1652
1595
1545
1496
1491
1487
1557
1627
1769
1911
2095
2279
2454
2630
2753
2877
2924
2971
2949
2927
2861
2796
2718
2641
2568
2496
2431
2366
2299
2233
2160
2087
2011
1935
1872
1810
1774
1739
1734
1730
1740
1751
1754
1758
1733
1708
1656
1605
1550
1496
1477
1459
1508
1558
1685
1813
1993
2174
2362
2551
2697
2844
2918
2992
2989
2987
2931
2876
2796
2717
2639
2561
2489
2418
2349
2280
2206
2132
2055
1979
1911
1844
1801
1758
1746
1734
1742
1751
1757
1764
1748
1733
1688
1644
1590
1536
1506
1476
1508
1540
1647
1755
1925
2095
2284
2474
2634
2794
2885
2977
2991
3005
2955
2906
2823
2741
2651
2562
2478
2395
2314
2234
2151
2068
1981
1894
1814
1735
1677
1620
1595
1571
1572
1573
1581
1589
1578
1568
1530
1493
1438
1384
1346
1309
1324
1339
1429
1519
1674
1829
2013
2197
2360
2524
2626
2729
2754
2780
2740
2701
2623
2546
2457
2369
2282
2195
2111
2027
1940
1854
1768
1683
1608
1534
1487
1440
1425
1411
1420
1430
1438
1446
1431
1417
1373
1329
1277
1226
1204
1182
1230
1279
1410
1542
1739
1936
2148
2360
2533
2706
2799
2892
2900
2908
2850
2793
2706
2620
2530
2441
2359
2278
2198
2118
2032
1947
1857
1767
1688
1609
1558
1507
1492
1478
1488
1498
1507
1516
1498
1481
1431
1381
1319
1257
1226
1196
1236
1277
1406
1535
1731
1927
2143
2360
2538
2716
2816
2917
2931
2946
2897
2848
2770
2692
2613
2535
2465
2395
2326
2258
2181
2104
2018
1933
1851
1769
1711
1654
1629
1604
1606
1609
1613
1617
1599
1581
1529
1478
1413
1349
1309
1269
1298
1327
1443
1560
1751
1943
2161
2380
2569
2759
2874
2989
3017
3045
3004
2964
2892
2820
2745
2671
2609
2548
2492
2437
2377
2317
2245
2174
2101
2029
1971
1914
1887
1860
1859
1858
1865
1872
1860
1849
1807
1765
1701
1638
1588
1538
1540
1543
1626
1710
1867
2025
2221
2418
2599
2780
2901
3022
3046
3071
3051
3032
2960
2889
2810
2732
2660
2588
2523
2459
2391
2323
2248
2173
2096
2020
1959
1898
1866
1834
1833
1832
1844
1857
1859
1861
1834
1808
1756
1705
1653
1602
1590
1578
1633
1689
1818
1947
2122
2298
2474
2651
2781
2912
2971
3031
3018
3006
2945
2884
2802
2721
2641
2561
2487
2413
2340
2267
2189
2112
2034
1957
1889
1822
1779
1737
1721
1706
1707
1709
1703
1698
1667
1637
1579
1522
1458
1395
1360
1326
1355
1384
1486
1589
1747
1905
2076
2248
2385
2523
2594
2666
2665
2665
2612
2559
2483
2408
2332
2256
2188
2120
2053
1987
1915
1843
1764
1686
1615
1544
1495
1446
1428
1410
1414
1418
1423
1429
1414
1399
1359
1319
1271
1224
1206
1188
1232
1277
1398
1520
1698
1877
2068
2260
2412
2565
2646
2728
2732
2737
2687
2638
2566
2495
2427
2359
2301
2243
2190
2137
2079
2021
1959
1898
1843
1789
1755
1722
1712
1702
1705
1709
1702
1696
1666
1636
1585
1534
1490
1447
1448
1450
1528
1606
1759
1912
2109
2307
2494
2681
2810
2940
2985
3030
2999
2969
2893
2817
2731
2646
2570
2495
2432
2370
2307
2244
2174
2105
2029
1954
1889
1825
1786
1747
1739
1731
1738
1746
1746
1746
1718
1691
1638
1586
1533
1480
1466
1452
1507
1562
1691
1821
1998
2175
2352
2530
2659
2789
2846
2903
2887
2871
2809
2748
2669
2591
2517
2443
2375
2307
2239
2172
2096
2021
1943
1866
1799
1732
1692
1652
1643
1634
1643
1652
1654
1657
1633
1610
1557
1505
1447
1390
1364
1338
1377
1417
1530
1644
1810
1977
2150
2324
2458
2593
2658
2723
2717
2712
2656
2600
2524
2448
2371
2295
2225
2155
2086
2018
1946
1875
1805
1736
1683
1630
1604
1578
1581
1584
1598
1612
1615
1618
1590
1563
1511
1460
1409
1359
1352
1346
1412
1479
1622
1765
1954
2143
2329
2515
2648
2782
2838
2895
2879
2864
2804
2745
2672
2600
2535
2470
2412
2354
2294
2235
2165
2095
2021
1947
1882
1818
1782
1746
1739
1732
1742
1753
1754
1755
1729
1704
1652
1600
1549
1498
1487
1477
1540
1603
1744
1885
2077
2270
2463
2656
2801
2947
3009
3071
3068
3066
3011
2957
2888
2819
2754
2690
2635
2580
2522
2464
2394
2325
2244
2164
2087
2011
1955
1899
1873
1847
1842
1837
1831
1826
1798
1771
1716
1662
1597
1533
1494
1455
1474
1493
1586
1680
1830
1981
2151
2321
2460
2600
2676
2752
2756
2760
2710
2660
2584
2508
2432
2356
2288
2221
2159
2097
2031
1965
1894
1823
1756
1689
1641
1594
1574
1555
1560
1565
1572
1580
1570
1561
1522
1484
1430
1377
1339
1301
1316
1331
1418
1505
1657
