0
3002
2976
2950
2905
2861
2811
2761
2709
2658
2606
2555
2503
2452
2403
2355
2312
2270
2235
2201
2175
2150
2130
2110
2095
2081
2071
2061
2056
2052
2051
2050
2047
2044
2031
2019
1990
1962
1917
1873
1819
1765
1713
1661
1621
1582
1554
1527
1504
1482
1449
1417
1367
1317
1251
1186
1127
1068
1047
1026
1069
1113
1231
1349
1527
1706
1913
2120
2312
2504
2648
2793
2875
2957
2983
3009
2997
2986
2957
2928
2893
2859
2820
2781
2734
2687
2629
2571
2507
2443
2382
2321
2273
2225
2195
2166
2149
2133
2122
2112
2100
2089
2074
2059
2044
2029
2018
2007
2001
1995
1986
1978
1959
1941
1905
1870
1822
1774
1721
1668
1622
1576
1541
1506
1476
1446
1408
1371
1318
1266
1204
1143
1096
1049
1048
1048
1120
1193
1343
1493
1701
1909
2130
2351
2542
2733
2861
2989
3030
3071
3071
3071
3055
3039
3001
2964
2927
2891
2852
2814
2767
2720
2662
2605
2544
2483
2429
2376
2341
2306
2290
2275
2272
2269
2265
2262
2248
2235
2208
2182
2150
2118
2088
2058
2037
2017
2002
1988
1971
1955
1926
1898
1853
1809
1753
1697
1641
1585
1539
1494
1463
1432
1407
1382
1350
1318
1271
1224
1166
1108
1066
1024
1024
1024
1066
1109
1235
1361
1542
1723
1926
2130
2315
2501
2638
2775
2851
2927
2948
2970
2954
2939
2905
2872
2831
2791
2746
2702
2651
2600
2542
2485
2425
2365
2312
2259
2219
2180
2157
2135
2124
2114
2107
2101
2091
2082
2069
2056
2042
2028
2017
2006
1998
1990
1979
1969
1948
1928
1893
1858
1810
1763
1713
1664
1621
1578
1547
1516
1490
1464
1433
1402
1356
1310
1255
1200
1156
1112
1109
1107
1172
1238
1377
1516
1710
1904
2113
2322
2502
2682
2802
2923
2976
3030
3031
3032
3005
2979
2947
2915
2885
2856
2824
2793
2748
2704
2642
2580
2507
2434
2363
2293
2240
2188
2161
2134
2128
2122
2125
2129
2129
2130
2120
2111
2093
2075
2054
2034
2015
1996
1978
1961
1937
1914
1881
1848
1803
1758
1706
1655
1608
1561
1524
1488
1460
1433
1404
1376
1336
1296
1240
1184
1125
1066
1045
1024
1035
1046
1142
1238
1403
1569
1779
1989
2200
2411
2584
2757
2865
2974
3016
3059
3051
3044
3011
2979
2940
2902
2867
2832
2798
2765
2725
2685
2635
2586
2529
2472
2415
2359
2313
2267
2236
2206
2190
2175
2167
2160
2153
2146
2134
2122
2106
2091
2074
2058
2043
2028
2013
1999
1979
1959
1926
1894
1847
1801
1745
1689
1635
1581
1538
1496
1469
1442
1422
1402
1375
1349
1303
1258
1198
1139
1085
1032
1028
1024
1073
1122
1256
1390
1583
1776
1988
2201
2386
2572
2697
2823
2879
2935
2936
2937
2908
2879
2842
2805
2769
2733
2696
2659
2613
2568
2512
2457
2396
2336
2281
2226
2185
2145
2121
2097
2082
2068
2058
2049
2038
2028
2018
2009
2003
1997
1995
1994
1990
1987
1973
1960
1929
1899
1854
1809
1758
1707
1663
1620
1589
1558
1536
1515
1489
1464
1423
1382
1327
1272
1221
1170
1153
1137
1184
1232
1355
1478
1663
1848
2059
2271
2464
2657
2795
2933
3000
3068
3069
3071
3042
3013
2966
2920
2876
2832
2791
2751
2709
2668
2618
2569
2511
2454
2396
2338
2288
2238
2204
2170
2151
2132
2121
2111
2101
2092
2078
2064
2047
2030
2012
1995
1979
1964
1949
1934
1914
1894
1862
1831
1788
1745
1695
1646
1599
1553
1515
1478
1448
1418
1387
1357
1319
1281
1237
1194
1161
1129
1132
1136
1201
1266
1397
1529
1713
1897
2095
2293
2464
2636
2749
2862
2907
2953
2943
2934
2893
2853
2804
2755
2708
2661
2617
2573
2526
2480
2428
2376
2321
2267
2215
2164
2124
2084
2057
2030
2014
1999
1990
1982
1977
1973
1969
1965
1960
1956
1947
1939
1922
1906
1880
1854
1820
1787
1750
1714
1680
1646
1614
1582
1548
1515
1472
1429
1376
1323
1270
1218
1188
1159
1178
1197
1282
1368
1517
1667
1858
2050
2244
2439
2599
2760
2861
2962
2999
3036
3022
3008
2965
2922
2869
2816
2764
2712
2662
2612
2562
2513
2460
2407
2352
2297
2244
2192
2148
2105
2075
2045
2030
2016
2014
2013
2019
2026
2033
2040
2040
2040
2027
2014
1984
1955
1912
1870
1822
1774
1729
1685
1649
1613
1585
1557
1529
1501
1463
1425
1372
1319
1259
1199
1152
1106
1102
1098
1159
1220
1353
1486
1675
1865
2076
2287
2477
2668
2804
2941
3006
3071
3071
3071
3041
3012
2959
2907
2854
2801
2751
2702
2653
2605
2552
2500
2444
2389
2334
2280
2234
2188
2154
2121
2100
2079
2066
2053
2044
2035
2027
2020
2013
2007
2001
1996
1988
1981
1966
1951
1924
1898
1859
1821
1776
1731
1687
1644
1608
1573
1543
1514
1482
1451
1409
1367
1313
1260
1209
1158
1134
1111
1141
1171
1269
1368
1528
1689
1882
2076
2264
2453
2601
2749
2836
2924
2953
2982
2966
2951
2911
2872
2822
2772
2719
2666
2610
2555
2496
2437
2378
2320
2266
2212
2168
2125
2094
2063
2042
2022
2010
1999
1992
1985
1982
1979
1978
1978
1976
1975
1967
1959
1941
1923
1892
1861
1822
1783
1741
1700
1662
1625
1591
1557
1521
1485
1440
1396
1343
1290
1242
1194
1175
1156
1191
1227
1331
1436
1603
1771
1973
2176
2372
2568
2719
2870
2954
3039
3055
3071
3043
3016
2966
2916
2864
2813
2766
2720
2675
2630
2579
2529
2471
2414
2355
2296
2245
2195
2162
2129
2112
2096
2091
2086
2081
2076
2066
2056
2041
2026
2013
2000
1993
1986
1983
1981
1975
1969
1947
1926
1885
1844
1787
1731
1672
1613
1565
1517
1485
1453
1431
1409
1383
1357
1318
1280
1232
1184
1149
1114
1122
1131
1207
1283
1431
1580
1780
1980
2190
2401
2580
2759
2876
2994
3032
3071
3067
3063
3020
2978
2927
2876
2829
2783
2741
2699
2657
2615
2566
2518
2465
2412
2358
2304
2258
2212
2179
2146
2126
2106
2096
2086
2079
2073
2066
2060
2052
2044
2035
2027
2017
2008
1995
1983
1962
1942
1909
1876
1832
1788
1737
1687
1640
1594
1557
1520
1493
1466
1441
1417
1384
1351
1306
1262
1214
1167
1137
1108
1123
1139
1218
1297
1440
1584
1770
1956
2149
2342
2504
2667
2776
2885
2934
2984
2985
2987
2958
2930
2887
2845
2794
2744
2688
2632
2569
2507
2441
2376
2315
2255
2206
2158
2126
2095
2078
2062
2053
2045
2038
2032
2025
2018
2011
2005
2000
1996
1993
1991
1985
1980
1965
1950
1921
1892
1850
1809
1763
1717
1675
1633
1600
1567
1539
1511
1479
1447
1402
1358
1304
1250
1202
1155
1139
1124
1167
1210
1322
1434
1607
1780
1983
2187
2382
2578
2729
2881
2968
3055
3063
3071
3055
3040
2988
2936
2879
2822
2769
2716
2669
2623
2577
2532
2484
2436
2385
2335
2287
2239
2199
2159
2133
2107
2094
2082
2080
2078
2079
2080
2078
2076
2066
2057
2041
2025
2004
1984
1961
1938
1911
1885
1854
1823
1785
1748
1705
1663
1620
1578
1541
1505
1478
1451
1429
1408
1383
1359
1324
1289
1244
1200
1161
1122
1114
1107
1156
1206
1325
1445
1626
1808
2019
2231
2430
2630
2780
2931
3001
3071
3071
3071
3062
3054
3005
2957
2909
2861
2818
2776
2736
2697
2655
2613
2566
2520
2472
2425
2383
2342
2311
2281
2261
2241
2229
2218
2211
2204
2198
2192
2186
2181
2175
2170
2163
2157
2145
2134
2114
2095
2065
2036
2001
1966
1930
1894
1862
1831
1805
1779
1754
1730
1701
1673
1637
1602
1561
1521
1482
1443
1411
1379
1355
1331
1309
1287
1258
1229
1189
1149
1106
1064
1044
1024
1041
1058
1142
1226
1376
1526
1721
1917
2121
2326
2500
2675
2790
2906
2953
3001
2992
2984
2943
2903
2854
2805
2763
2721
2688
2655
2625
2595
2559
2523
2476
2430
2376
2322
2268
2215
2172
2130
2103
2076
2064
2052
2050
2049
2049
2049
2045
2042
2033
2025
2012
2000
1985
1970
1953
1937
1917
1898
1873
1848
1817
1787
1752
1718
1684
1651
1620
1590
1561
1533
1500
1467
1426
1385
1336
1288
1245
1203
1187
1171
1203
1236
1330
1424
1575
1726
1910
2094
2276
2459
2607
2755
2848
2941
2974
3008
2996
2984
2943
2903
2851
2800
2745
2691
2636
2582
2525
2468
2408
2349
2291
2234
2185
2136
2102
2068
2052
2036
2034
2032
2038
2044
2050
2056
2056
2056
2048
2041
2027
2014
1996
1979
1959
1939
1915
1891
1861
1832
1797
1763
1725
1688
1654
1620
1593
1567
1548
1530
1513
1496
1471
1446
1407
1369
1321
1274
1235
1196
1191
1187
1241
1295
1416
1537
1712
1887
2083
2280
2459
2639
2769
2899
2966
3034
3045
3056
3029
3003
2961
2920
2875
2830
2786
2742
2696
2651
2599
2548
2493
2438
2383
2329
2282
2236
2202
2168
2147
2127
2117
2108
2106
2104
2104
2105
2105
2105
2102
2100
2092
2084
2070
2057
2036
2016
1990
1965
1934
1903
1867
1832
1792
1753
1712
1671
1632
1594
1562
1531
1509
1487
1470
1454
1434
1415
1384
1353
1309
1265
1217
1169
1140
1112
1131
1150
1234
1319
1469
1619
1812
2006
2204
2402
2565
2729
2830
2932
2968
3004
2988
2972
2927
2883
2830
2778
2727
2677
2629
2581
2531
2481
2427
2373
2318
2263
2214
2166
2129
2093
2071
2050
2040
2031
2027
2024
2022
2021
2019
2017
2014
2012
2008
2004
1995
1987
1970
1954
1928
1902
1868
1834
1797
1761
1727
1693
1663
1633
1602
1572
1535
1498
1452
1406
1359
1312
1282
1253
1265
1278
1348
1419
1548
1678
1848
2019
2197
2375
2526
2678
2779
2881
2925
2969
2966
2964
2932
2900
2855
2810
2761
2713
2662
2612
2558
2504
2446
2389
2330
2272
2219
2166
2123
2080
2049
2018
1998
1978
1968
1958
1954
1950
1951
1952
1952
1953
1949
1946
1932
1919
1894
1869
1835
1802
1765
1729
1695
1662
1633
1604
1573
1543
1505
1468
1420
1373
1324
1276
1247
1219
1234
1250
1327
1404
1542
1681
1859
2037
2220
2403
2553
2703
2797
2891
2925
2960
2947
2935
2898
2861
2817
2774
2732
2690
2650
2610
2566
2523
2474
2425
2373
2321
2272
2224
2184
2145
2117
2090
2071
2052
2040
2028
2019
2010
2003
1996
1990
1985
1978
1971
1958
1946
1924
1902
1869
1837
1799
1761
1725
1690
1663
1637
1617
1597
1577
1557
1524
1492
1443
1395
1339
1283
1243
1204
1209
1214
1284
1354
1489
1625
1803
1981
2163
2346
2494
2643
2734
2825
2856
2887
2873
2860
2824
2789
2749
2710
2673
2637
2601
2566
2526
2486
2438
2391
2339
2287
2237
2187
2145
2103
2070
2038
2015
1993
1978
1963
1955
1947
1944
1941
1941
1942
1940
1938
1927
1917
1895
1873
1840
1808
1771
1734
1700
1667
1638
1610
1584
1559
1529
1499
1460
1422
1382
1343
1320
1298
1314
1331
1404
1478
1607
1737
1903
2069
2237
2406
2544
2682
2767
2852
2882
2912
2898
2884
2846
2809
2762
2716
2669
2622
2574
2526
2475
2425
2373
2322
2273
2225
2186
2147
2121
2095
2081
2067
2059
2052
2046
2041
2033
2026
2016
2007
1996
1985
1972
1959
1942
1926
1903
1881
1852
1823
1790
1757
1724
1692
1662
1632
1601
1570
1533
1496
1446
1397
1339
1281
1226
1171
1149
1127
1161
1196
1299
1403
1568
1733
1932
2131
2325
2519
2670
2821
2908
2996
3019
3043
3020
2997
2950
2904
2853
2802
2756
2710
2667
2625
2581
2537
2489
2441
2390
2340
2293
2247
2210
2173
2148
2124
2109
2095
2086
2078
2070
2062
2054
2046
2037
2029
2021
2013
2004
1995
1982
1969
1947
1925
1893
1861
1821
1782
1741
1700
1664
1628
1599
1570
1543
1517
1485
1453
1408
1363
1309
1255
1205
1155
1134
1113
1144
1175
1271
1368
1523
1678
1866
2054
2238
2422
2566
2711
2796
2882
2907
2933
2913
2894
2851
2808
2759
2710
2664
2618
2573
2529
2482
2435
2383
2332
2280
2228
2181
2135
2102
2069
2050
2032
2027
2023
2026
2029
2034
2040
2044
2048
2047
2047
2040
2033
2016
2000
1973
1946
1911
1876
1836
1797
1759
1721
1688
1656
1626
1597
1565
1533
1492
1452
1403
1354
1308
1263
1240
1218
1242
1266
1349
1433
1574
1715
1893
2071
2251
2432
2581
2730
2825
2920
2954
2989
2974
2960
2915
2871
2817
2763
2711
2660
2614
2568
2524
2481
2435
2389
2341
2293
2246
2199
2159
2119
2090
2062
2046
2031
2024
2018
2015
2012
2009
2006
2000
1994
1985
1977
1965
1953
1936
1919
1892
1866
1831
1796
1754
1713
1671
1630
1595
1560
1533
1506
1481
1456
1425
1394
1351
1308
1258
1209
1172
1135
1138
1141
1207
1273
1410
1547
1738
1930
2141
2352
2541
2730
2863
2997
3034
3071
3071
3071
3049
3028
2971
2915
2860
2805
2756
2707
2663
2620
2576
2533
2488
2443
2397
2352
2310
2269
2236
2204
2182
2161
2150
2140
2135
2131
2128
2125
2119
2114
2103
2092
2075
2059
2040
2021
2000
1980
1958
1936
1910
1885
1853
1821
1781
1742
1698
1655
1614
1574
1542
1511
1489
1467
1450
1433
1410
1387
1351
1315
1269
1223
1183
1143
1134
1125
1171
1217
1328
1440
1605
1771
1962
2153
2330
2507
2637
2768
2836
2904
2914
2924
2895
2866
2818
2771
2723
2676
2633
2590
2549
2509
2465
2422
2374
2327
2278
2229
2186
2143
2112
2082
2065
2049
2044
2040
2042
2045
2049
2053
2056
2059
2059
2059
2054
2050
2037
2025
2001
1978
1943
1909
1867
1825
1782
1740
1704
1668
1641
1614
1590
1567
1539
1512
1473
1435
1389
1343
1305
1268
1261
1255
1302
1349
1457
1566
1726
1886
2068
2250
2418
2587
2711
2835
2901
2967
2976
2986
2957
2929
2881
2834
2784
2735
2689
2644
2601
2558
2513
2469
2420
2372
2322
2272
2225
2179
2142
2105
2081
2057
2043
2030
2023
2016
2011
2006
2000
1995
1988
1981
1975
1969
1962
1955
1945
1936
1918
1900
1870
1840
1800
1761
1717
1673
1633
1593
1562
1531
1508
1486
1463
1440
1407
1375
1330
1286
1241
1196
1174
1153
1180
1208
1302
1397
1555
1713
1910
2107
2304
2501
2659
2818
2915
3012
3041
3071
3056
3042
